time,flux
0.0,0.9864528796960162
0.013706853426713355,0.9865209008284828
0.02741370685342671,0.9892140467783271
0.041120560280140064,0.991843524651555
0.05482741370685342,0.9948880184632091
0.06853426713356678,0.9984772763420436
0.08224112056028013,1.0005004066162282
0.09594797398699349,1.0049486882014924
0.10965482741370684,1.009589899609491
0.1233616808404202,1.012597447239347
0.13706853426713356,1.017134523285017
0.1507753876938469,1.0207272191397385
0.16448224112056026,1.0233448906380314
0.1781890945472736,1.0280738328909043
0.19189594797398699,1.0317624798028484
0.20560280140070034,1.0339345886641074
0.21930965482741369,1.0357664258183852
0.23301650825412704,1.0376993012281015
0.2467233616808404,1.0391070884528761
0.26043021510755376,1.0407800334401198
0.2741370685342671,1.040469624209683
0.28784392196098046,1.0407168624003131
0.3015507753876938,1.039930019367939
0.31525762881440716,1.0389198358605423
0.3289644822411205,1.0374014861842722
0.34267133566783387,1.0346129458878093
0.3563781890945472,1.032083600276537
0.3700850425212606,1.0283807225806583
0.38379189594797397,1.0247687485960868
0.3974987493746873,1.0208491527997405
0.41120560280140067,1.0174414945491719
0.424912456228114,1.0120076469700074
0.43861930965482737,1.0086184574417492
0.4523261630815407,1.0046009835499483
0.46603301650825407,1.0002164308390453
0.4797398699349674,0.9956280227202086
0.4934467233616808,0.992535005702081
0.5071535767883941,0.9892977649723349
0.5208604302151075,0.9857486744497719
0.5345672836418208,0.9832909139660198
0.5482741370685342,0.9796559270778092
0.5619809904952475,0.9793595962221956
0.5756878439219609,0.9773490063003476
0.5893946973486743,0.976477796167277
0.6031015507753876,0.977813927980873
0.616808404202101,0.9774716368398071
0.6305152576288143,0.9781091713699429
0.6442221110555277,0.9799094746677163
0.657928964482241,0.9817844115859289
0.6716358179089544,0.9831033084025546
0.6853426713356677,0.9855248647374782
0.6990495247623811,0.9902363176505308
0.7127563781890944,0.9909051627283816
0.7264632316158078,0.9954034317935376
0.7401700850425212,0.9978089754605151
0.7538769384692345,1.0008989196834874
0.7675837918959479,1.00276862305352
0.7812906453226612,1.0059876278491693
0.7949974987493746,1.0083493586292922
0.8087043521760879,1.0110648600031016
0.8224112056028013,1.0130785919229595
0.8361180590295146,1.0133541977391454
0.849824912456228,1.0151407261861412
0.8635317658829413,1.0144808441191784
0.8772386193096547,1.0148412831694718
0.8909454727363681,1.0141500009055722
0.9046523261630814,1.013379994413735
0.9183591795897948,1.011464422649322
0.9320660330165081,1.0094228988353005
0.9457728864432215,1.0063858331604258
0.9594797398699348,1.004778659878114
0.9731865932966483,1.0015020225197577
0.9868934467233615,0.9979504851269428
1.000600300150075,0.9938847944664455
1.0143071535767882,0.990362977918728
1.0280140070035018,0.9864577975513841
1.041720860430215,0.9835697810669872
1.0554277138569284,0.9797875777704546
1.0691345672836416,0.9760795611485397
1.0828414207103552,0.9723120149798803
1.0965482741370685,0.9695770094955415
1.1102551275637818,0.9681712552061537
1.123961980990495,0.9653988841936808
1.1376688344172086,0.9628281109439353
1.1513756878439219,0.9632783812628042
1.1650825412706352,0.9628858439883209
1.1787893946973487,0.9622335783880207
1.192496248124062,0.9631040852601284
1.2062031015507753,0.9631449445454909
1.2199099549774886,0.9652804169889982
1.233616808404202,0.9672415372089234
1.2473236618309154,0.9693586555595265
1.2610305152576287,0.9730219356339977
1.274737368684342,0.9764175715875912
1.2884442221110555,0.9789608105182886
1.3021510755377688,0.9835242660527893
1.315857928964482,0.9885749812190657
1.3295647823911956,0.9911425357083623
1.3432716358179089,0.9954308094764812
1.3569784892446222,0.9996994047398793
1.3706853426713355,1.0031792060321896
1.384392196098049,1.0067213294111648
1.3980990495247623,1.010070244694507
1.4118059029514756,1.0124627833761006
1.4255127563781889,1.0159812030899524
1.4392196098049024,1.0166877730685924
1.4529264632316157,1.0196766839717628
1.466633316658329,1.0211229453489394
1.4803401700850425,1.0204272678815107
1.4940470235117558,1.0206358864823613
1.507753876938469,1.01977218322809
1.5214607303651824,1.0194363922896381
1.5351675837918959,1.0173194772197292
1.5488744372186092,1.0164376727820414
1.5625812906453225,1.013374093802113
1.5762881440720358,1.010963466811388
1.5899949974987493,1.0084930716538987
1.6037018509254626,1.004976579411087
1.6174087043521759,1.002092831304755
1.6311155577788894,0.998848391743045
1.6448224112056027,0.996310793924173
1.658529264632316,0.9927529356593957
1.6722361180590293,0.9892015008996997
1.6859429714857428,0.9863378262638428
1.699649824912456,0.9853435491720892
1.7133566783391694,0.98324417185602
1.7270635317658827,0.9810900782927946
1.7407703851925962,0.9793702598641523
1.7544772386193095,0.9789787630845976
1.7681840920460228,0.9781144898241978
1.7818909454727363,0.9791467980630575
1.7955977988994496,0.9815824131800984
1.8093046523261629,0.9822252138927665
1.8230115057528762,0.9840710686334689
1.8367183591795897,0.9859551722156459
1.850425212606303,0.9902020563978984
1.8641320660330163,0.9922810940300798
1.8778389194597296,0.995790499964492
1.891545772886443,0.999906866956704
1.9052526263131564,1.003260885473997
1.9189594797398697,1.0078333279019653
1.9326663331665832,1.0106653493280453
1.9463731865932965,1.0156877942036953
1.9600800400200098,1.0194538419252683
1.973786893446723,1.023170838703657
1.9874937468734366,1.027261011993983
2.00120060030015,1.0306213083796099
2.014907453726863,1.0322770695718628
2.0286143071535765,1.0339023942043406
2.04232116058029,1.0368110814863885
2.0560280140070035,1.0378462697610924
2.069734867433717,1.0378145924896414
2.08344172086043,1.0396777598469618
2.0971485742871434,1.038294085727662
2.1108554277138567,1.0377965077260078
2.12456228114057,1.0357617744140213
2.1382691345672833,1.0344605073402044
2.1519759879939966,1.0314437068885502
2.1656828414207103,1.0294345089406691
2.1793896948474236,1.0250358058283573
2.193096548274137,1.0215973020792246
2.20680340170085,1.0182380509692694
2.2205102551275635,1.0153078858457136
2.234217108554277,1.0114708837474933
2.24792396198099,1.0080046070205502
2.261630815407704,1.0033973330329027
2.275337668834417,0.9994979954557295
2.2890445222611304,0.9961176595279068
2.3027513756878437,0.9952475213521161
2.316458229114557,0.9923692985380868
2.3301650825412703,0.9902468671874936
2.3438719359679836,0.9875721750798486
2.3575787893946973,0.986272529161004
2.3712856428214106,0.9854089148526698
2.384992496248124,0.9848619464596309
2.3986993496748372,0.9847507689951114
2.4124062031015505,0.9855258387523745
2.426113056528264,0.9865010207539882
2.439819909954977,0.9889089651338735
2.4535267633816904,0.9908693730962448
2.467233616808404,0.9923376106851212
2.4809404702351174,0.9951013694170755
2.4946473236618307,0.9975162526863527
2.508354177088544,1.0011206253280462
2.5220610305152573,1.0031356880935245
2.5357678839419706,1.0070286071376453
2.549474737368684,1.0089351298860432
2.5631815907953976,1.012079394198035
2.576888444222111,1.0148478186279557
2.5905952976488242,1.0167835805035077
2.6043021510755375,1.018705643416362
2.618009004502251,1.0200616914912994
2.631715857928964,1.0222993266977427
2.6454227113556774,1.0209906727084705
2.659129564782391,1.0217000456510068
2.6728364182091044,1.022074368989201
2.6865432716358177,1.0197470071514796
2.700250125062531,1.0181539302912423
2.7139569784892443,1.0164483478462232
2.7276638319159576,1.0138952040946334
2.741370685342671,1.0109524387151383
2.755077538769384,1.0073189136799048
2.768784392196098,1.0032118730192292
2.7824912456228112,1.0001707994061544
2.7961980990495245,0.9961708689118404
2.809904952476238,0.9916258755239169
2.823611805902951,0.9874417822128856
2.8373186593296644,0.9825586529186472
2.8510255127563777,0.9791641237852869
2.8647323661830915,0.9751682589360285
2.8784392196098048,0.9718124111058367
2.892146073036518,0.9682578477108424
2.9058529264632313,0.9654164577180852
2.9195597798899446,0.9625731267601575
2.933266633316658,0.9615477860232444
2.9469734867433712,0.9592556132265769
2.960680340170085,0.9593309882972004
2.9743871935967983,0.9580323836424514
2.9880940470235116,0.9593522805611507
3.001800900450225,0.9605477158714754
3.015507753876938,0.9613652797185712
3.0292146073036514,0.9627740974408414
3.0429214607303647,0.965628819229102
3.056628314157078,0.9678952087812938
3.0703351675837918,0.9716653379757405
3.084042021010505,0.9739454996023005
3.0977488744372184,0.9794002263638688
3.1114557278639317,0.9824279206563538
3.125162581290645,0.9864991969655017
3.1388694347173582,0.9900678491121627
3.1525762881440715,0.9943781068019666
3.1662831415707853,0.9970085740511148
3.1799899949974986,1.0014947621130383
3.193696848424212,1.004072939961861
3.207403701850925,1.0078498333347483
3.2211105552776385,1.0109720617456592
3.2348174087043517,1.0123640143477812
3.248524262131065,1.0144964590872407
3.262231115557779,1.0157030879310704
3.275937968984492,1.0152818368932546
3.2896448224112054,1.016171903496071
3.3033516758379187,1.01533759541797
3.317058529264632,1.0157429785781016
3.3307653826913453,1.0133059663927184
3.3444722361180586,1.0132525218769652
3.358179089544772,1.0100244460631402
3.3718859429714856,1.0082523569328274
3.385592796398199,1.0049030464567843
3.399299649824912,1.002418712636728
3.4130065032516255,0.9987021749221242
3.4267133566783388,0.9964350752607561
3.440420210105052,0.9929081853718719
3.4541270635317654,0.9897012579337277
3.467833916958479,0.9872524667291547
3.4815407703851924,0.9855174059538712
3.4952476238119057,0.9826969242968606
3.508954477238619,0.98115995320724
3.5226613306653323,0.9795879863309979
3.5363681840920456,0.9788694122043776
3.550075037518759,0.9782357517130261
3.5637818909454726,0.9777515717667783
3.577488744372186,0.9794765506316794
3.591195597798899,0.980224618603774
3.6049024512256125,0.9808765214078452
3.6186093046523258,0.9844512341480993
3.632316158079039,0.9864293823648564
3.6460230115057524,0.9892026441473902
3.659729864932466,0.9919266919766422
3.6734367183591794,0.9962629833383223
3.6871435717858927,0.9996956260154586
3.700850425212606,1.0037382255781202
3.7145572786393193,1.0076809673509635
3.7282641320660326,1.011129848867397
3.741970985492746,1.0154542853431525
3.755677838919459,1.019200695628327
3.769384692346173,1.023175518228674
3.783091545772886,1.0265341735599085
3.7967983991995995,1.0293125035160036
3.810505252626313,1.0306631697200919
3.824212106053026,1.032438831352252
3.8379189594797394,1.0352435081429732
3.8516258129064527,1.035417063034873
3.8653326663331664,1.036957252505078
3.8790395197598797,1.0365444833183395
3.892746373186593,1.0362622772553713
3.9064532266133063,1.0350752048942287
3.9201600800400196,1.0329612057376039
3.933866933466733,1.0311515297907408
3.947573786893446,1.0280809686414716
3.96128064032016,1.025615512360482
3.974987493746873,1.021196284293722
3.9886943471735865,1.0198255171067634
4.0024012006003,1.0148148843380278
4.016108054027013,1.0122779425024273
4.029814907453726,1.0078712105527303
4.04352176088044,1.0036780197684247
4.057228614307153,1.0002359730458894
4.070935467733866,0.9968910499933152
4.08464232116058,0.9946713751397801
4.098349174587293,0.9914068814813174
4.112056028014007,0.9895389389918855
4.12576288144072,0.9875443658310668
4.139469734867434,0.9854001903859647
4.153176588294147,0.9843392582887154
4.16688344172086,0.9848460565995829
4.1805902951475735,0.984969659694539
4.194297148574287,0.9839075231954652
4.208004002001,0.9857121429915171
4.221710855427713,0.9881365175530328
4.235417708854427,0.989901758518266
4.24912456228114,0.9916944831483622
4.262831415707853,0.994253478917656
4.276538269134567,0.9973211595830194
4.29024512256128,1.000637623655267
4.303951975987993,1.0038552287104943
4.317658829414707,1.0077398271598987
4.331365682841421,1.0107486736274747
4.345072536268134,1.0132634578935715
4.358779389694847,1.0163326947752322
4.3724862431215605,1.0189111098317711
4.386193096548274,1.0221155973770204
4.399899949974987,1.0236551425227007
4.4136068034017,1.025570306039189
4.427313656828414,1.0269238831702108
4.441020510255127,1.0279058095549782
4.45472736368184,1.0275882241272836
4.468434217108554,1.027853719677896
4.482141070535267,1.0271537828184174
4.49584792396198,1.0247284671205885
4.5095547773886935,1.0224773299986656
4.523261630815408,1.0208529913874638
4.536968484242121,1.0176459672528906
4.550675337668834,1.0142129372168789
4.5643821910955475,1.0115613211812964
4.578089044522261,1.007414447158372
4.591795897948974,1.0039547882722284
4.605502751375687,0.9991475069383307
4.619209604802401,0.9946677516517123
4.632916458229114,0.9910113995171684
4.646623311655827,0.9854492090201747
4.660330165082541,0.9816216610460717
4.674037018509254,0.9773754025143602
4.687743871935967,0.9755077891405917
4.7014507253626805,0.9709476403211419
4.715157578789395,0.9689045463024644
4.728864432216108,0.9676279109707308
4.742571285642821,0.9662009100098318
4.756278139069535,0.9643872777254019
4.769984992496248,0.963772596096435
4.783691845922961,0.963995600501371
4.7973986993496744,0.9642457832553671
4.811105552776388,0.9651489163926537
4.824812406203101,0.96645107618377
4.838519259629814,0.9692139649734327
4.852226113056528,0.9715536376680759
4.865932966483241,0.9739894068411744
4.879639819909954,0.975872628485965
4.8933466733366675,0.979768711348681
4.907053526763381,0.9829225350962866
4.920760380190095,0.9866855412162124
4.934467233616808,0.9898691090022504
4.948174087043522,0.9935083357511345
4.961880940470235,0.9964581512361407
4.975587793896948,1.0009017657936194
4.9892946473236615,1.0024138173975872
5.003001500750375,1.0048846458914331
5.016708354177088,1.0062254592230293
5.030415207603801,1.008819226432239
5.044122061030515,1.0099108974750541
5.057828914457228,1.0096543468467465
5.071535767883941,1.010402895351822
5.0852426213106545,1.0105972337391287
5.098949474737368,1.0099090231136931
5.112656328164081,1.0076286591090542
5.126363181590795,1.0069198801023982
5.140070035017509,1.0045525774344897
5.153776888444222,1.0019794154244304
5.167483741870935,0.9996014935822001
5.1811905952976485,0.9971323885054757
5.194897448724362,0.9939238191239192
5.208604302151075,0.9905697016429328
5.222311155577788,0.9881826144094887
5.236018009004502,0.9841598006753873
5.249724862431215,0.9820056968034332
5.263431715857928,0.9788817161364892
5.2771385692846415,0.9765023224196704
5.290845422711355,0.9748226920687826
5.304552276138068,0.9724311126658273
5.318259129564782,0.9718053068019632
5.331965982991496,0.9716346648606112
5.345672836418209,0.9717697621869076
5.359379689844922,0.9714575752951886
5.3730865432716355,0.9721328815191644
5.386793396698349,0.9735657578354224
5.400500250125062,0.9755455072986088
5.414207103551775,0.9790350646784517
5.427913956978489,0.9804907253054416
5.441620810405202,0.9845908236697003
5.455327663831915,0.9881916802900064
5.4690345172586285,0.9929635446190602
5.482741370685342,0.9962835868487647
5.496448224112055,1.0010395533527994
5.510155077538768,1.005409776489549
5.523861930965483,1.0098608952412942
5.537568784392196,1.014139822017605
5.551275637818909,1.0185537073079391
5.5649824912456225,1.0216647330017596
5.578689344672336,1.025130683395874
5.592396198099049,1.0285000820654011
5.606103051525762,1.0307945696475738
5.619809904952476,1.034428362986517
5.633516758379189,1.0358595554915064
5.647223611805902,1.0374377133039843
5.660930465232616,1.0377354600835702
5.674637318659329,1.0377078397965045
5.688344172086042,1.0377578800040494
5.7020510255127554,1.0361976627586622
5.71575787893947,1.035001473374496
5.729464732366183,1.03367681417562
5.743171585792896,1.0305121253848173
5.7568784392196095,1.0284674914321648
5.770585292646323,1.0251418568181714
5.784292146073036,1.0216171874472884
5.797998999499749,1.0181114595306184
5.811705852926463,1.0139766809428714
5.825412706353176,1.0110210194638691
5.839119559779889,1.0065290566584904
5.852826413206603,1.0041733515157145
5.866533266633316,1.000140722524189
5.880240120060029,0.9978527657786843
5.8939469734867425,0.9945662191341454
5.907653826913456,0.9923828659942743
5.92136068034017,0.9898204816709897
5.935067533766883,0.9882937128793938
5.9487743871935965,0.9876097575499527
5.96248124062031,0.9872698586215938
5.976188094047023,0.9872408833834587
5.989894947473736,0.9876855211871673
6.00360180090045,0.9883523750733454
6.017308654327163,0.9902495616075834
6.031015507753876,0.9914356759940696
6.04472236118059,0.9941793069146866
6.058429214607303,0.9965463981730626
6.072136068034016,0.9995908835949723
6.0858429214607295,1.0034546073963566
6.099549774887443,1.006526842869373
6.113256628314156,1.0086261783399604
6.12696348174087,1.011758930704057
6.1406703351675835,1.0153880336104502
6.154377188594297,1.017944248963743
6.16808404202101,1.020795568099298
6.181790895447723,1.0230850344644002
6.195497748874437,1.0253352451611708
6.20920460230115,1.0270932442109264
6.222911455727863,1.0272494285996356
6.236618309154577,1.0285816619130295
6.25032516258129,1.0279521252450021
6.264032016008003,1.027800560537197
6.2777388694347165,1.0276609797077407
6.29144572286143,1.0251152793051725
6.305152576288143,1.0239681468969088
6.318859429714857,1.0210305113300784
6.3325662831415706,1.0182655482738132
6.346273136568284,1.0146039208123119
6.359979989994997,1.0124523752686927
6.37368684342171,1.008249176396239
6.387393696848424,1.0042290512444139
6.401100550275137,0.9993401019641566
6.41480740370185,0.995860044851395
6.428514257128564,0.9910912966002188
6.442221110555277,0.9874740683066299
6.45592796398199,0.9830022651689246
6.4696348174087035,0.9807586125802558
6.483341670835417,0.9778746783675919
6.49704852426213,0.9745943394969357
6.510755377688843,0.9722585401132269
6.524462231115558,0.9702791824785966
6.538169084542271,0.9685188508691575
6.551875937968984,0.9680637470764045
6.5655827913956974,0.9677937946614392
6.579289644822411,0.9674524628592583
6.592996498249124,0.9680289611628767
6.606703351675837,0.9697371639688211
6.620410205102551,0.9702354753985187
6.634117058529264,0.9740035861683761
6.647823911955977,0.9756125710627546
6.6615307653826905,0.978047964153538
6.675237618809404,0.982093529886241
6.688944472236117,0.9849021957043665
6.70265132566283,0.988427110987987
6.716358179089544,0.9913739292308946
6.730065032516258,0.9942509148127613
6.743771885942971,0.9987698793187493
6.7574787393696845,1.0011503171503502
6.771185592796398,1.0045790298087345
6.784892446223111,1.0069852700101019
6.798599299649824,1.0098112484150967
6.812306153076538,1.0114130330700069
6.826013006503251,1.0112162597540066
6.839719859929964,1.0130054947392937
6.8534267133566775,1.0125070324252095
6.867133566783391,1.0130721607257163
6.880840420210104,1.0119966740594728
6.894547273636817,1.0111631802765004
6.908254127063531,1.00958606737228
6.921960980490245,1.007619324369474
6.935667833916958,1.0047744225987867
6.9493746873436715,1.0014507899350207
6.963081540770385,0.9988234890855686
6.976788394197098,0.9953492288335264
6.990495247623811,0.9921580946236636
7.004202101050525,0.9885538608977131
7.017908954477238,0.9855936607629173
7.031615807903951,0.9804080111435316
7.0453226613306645,0.978326691029237
7.059029514757378,0.9753767286777832
7.072736368184091,0.9733418895109219
7.086443221610804,0.9709522955783287
7.100150075037518,0.9684795623774118
7.113856928464231,0.9663237267520207
7.127563781890945,0.9656859878122739
7.1412706353176585,0.9654719082348264
7.154977488744372,0.9650551529823805
7.168684342171085,0.9656596408572364
7.182391195597798,0.9668694013024202
7.196098049024512,0.9682416318645721
7.209804902451225,0.9718130133052142
7.223511755877938,0.9743829380709442
7.2372186093046516,0.9767626605083217
7.250925462731365,0.979889162020565
7.264632316158078,0.9845972276074084
7.278339169584791,0.9886800262991213
7.292046023011505,0.992525205108059
7.305752876438218,0.9971288199243018
7.319459729864932,1.0014497106761973
7.3331665832916455,1.0056855474498743
7.346873436718359,1.010298779205773
