time,flux
0.0,1.042691325866938
0.013706853426713355,1.035828947779451
0.02741370685342671,1.0291468921036198
0.041120560280140064,1.0183700803219107
0.05482741370685342,1.009667799025308
0.06853426713356678,1.0009945720716864
0.08224112056028013,0.9910470448316838
0.09594797398699349,0.9827355289319951
0.10965482741370684,0.9763676804822826
0.1233616808404202,0.9704014264294635
0.13706853426713356,0.9666891953641006
0.1507753876938469,0.9673438768481617
0.16448224112056026,0.9666329958935939
0.1781890945472736,0.9684979611226987
0.19189594797398699,0.9736427354036271
0.20560280140070034,0.9791085766339558
0.21930965482741369,0.9850978776650496
0.23301650825412704,0.9907527140943585
0.2467233616808404,0.9964180097345803
0.26043021510755376,1.0024571265745794
0.2741370685342671,1.0075463817545087
0.28784392196098046,1.0113167343800584
0.3015507753876938,1.0132361918630068
0.31525762881440716,1.0129213876284973
0.3289644822411205,1.013629750023594
0.34267133566783387,1.0107239835702944
0.3563781890945472,1.0084896591188208
0.3700850425212606,1.0035844992383363
0.38379189594797397,0.9999626757617139
0.3974987493746873,0.9959372748291618
0.41120560280140067,0.9929817536960556
0.424912456228114,0.9892545224722133
0.43861930965482737,0.9886883841436367
0.4523261630815407,0.988010445608371
0.46603301650825407,0.9902535405802948
0.4797398699349674,0.9926693396574215
0.4934467233616808,0.9971590405161682
0.5071535767883941,1.0016111686699207
0.5208604302151075,1.0081935046538362
0.5345672836418208,1.0149226766290789
0.5482741370685342,1.0202302975521358
0.5619809904952475,1.0254398654640928
0.5756878439219609,1.030921244320406
0.5893946973486743,1.0335477195142555
0.6031015507753876,1.0348932736279723
0.616808404202101,1.0338108378844895
0.6305152576288143,1.0297401907476098
0.6442221110555277,1.02535265747669
0.657928964482241,1.017320934825936
0.6716358179089544,1.0085868444404673
0.6853426713356677,0.9976043058799373
0.6990495247623811,0.9875919717773927
0.7127563781890944,0.9753935975563592
0.7264632316158078,0.9658923100215232
0.7401700850425212,0.9574474342269448
0.7538769384692345,0.949336079529888
0.7675837918959479,0.9440244022600752
0.7812906453226612,0.942654019843592
0.7949974987493746,0.9429043671547104
0.8087043521760879,0.9469271924637945
0.8224112056028013,0.9538380462349008
0.8361180590295146,0.962348357279025
0.849824912456228,0.9741921029242258
0.8635317658829413,0.988041273941285
0.8772386193096547,1.0022815130762524
0.8909454727363681,1.0163061889864495
0.9046523261630814,1.0311780065708815
0.9183591795897948,1.043983388831145
0.9320660330165081,1.0543052649020668
0.9457728864432215,1.0642880299387567
0.9594797398699348,1.0699054434105266
0.9731865932966483,1.0706326038280871
0.9868934467233615,1.0697357914956356
1.000600300150075,1.0645641933161936
1.0143071535767882,1.0563004882484799
1.0280140070035018,1.0446201190423543
1.041720860430215,1.0325750742141746
1.0554277138569284,1.0169150107017644
1.0691345672836416,1.0024571319587847
1.0828414207103552,0.9865009522915407
1.0965482741370685,0.9718770332292207
1.1102551275637818,0.9592947649045228
1.123961980990495,0.947484846602249
1.1376688344172086,0.9388662859829614
1.1513756878439219,0.9338396696267851
1.1650825412706352,0.9324141838314268
1.1787893946973487,0.9341131681008941
1.192496248124062,0.939173852251986
1.2062031015507753,0.9460855319065216
1.2199099549774886,0.9568403967972597
1.233616808404202,0.969205124482602
1.2473236618309154,0.9801630775536727
1.2610305152576287,0.9939340448685025
1.274737368684342,1.0071088263284582
1.2884442221110555,1.0193891023911348
1.3021510755377688,1.0293903053535618
1.315857928964482,1.03796703422531
1.3295647823911956,1.0441156782839593
1.3432716358179089,1.0484040565994792
1.3569784892446222,1.049967756730354
1.3706853426713355,1.048001830114146
1.384392196098049,1.044363274128346
1.3980990495247623,1.0384234005302335
1.4118059029514756,1.0317097757639722
1.4255127563781889,1.0243271055761314
1.4392196098049024,1.0165696782151978
1.4529264632316157,1.0074629031404432
1.466633316658329,1.0000615815896319
1.4803401700850425,0.9939228644623667
1.4940470235117558,0.9873004875294817
1.507753876938469,0.983490567428964
1.5214607303651824,0.9804316341675178
1.5351675837918959,0.9794023844717322
1.5488744372186092,0.9789268819407544
1.5625812906453225,0.9806983061668568
1.5762881440720358,0.9821022955473945
1.5899949974987493,0.9840147528891737
1.6037018509254626,0.9871602221393694
1.6174087043521759,0.9905347856009992
1.6311155577788894,0.9924049441634256
1.6448224112056027,0.9950459028610337
1.658529264632316,0.9963813374786992
1.6722361180590293,0.9969374032203787
1.6859429714857428,0.9970935784115574
1.699649824912456,0.9962501925122437
1.7133566783391694,0.9946795291678642
1.7270635317658827,0.9924130478193635
1.7407703851925962,0.9912207866076919
1.7544772386193095,0.9904080888270406
1.7681840920460228,0.9896694994084542
1.7818909454727363,0.9898609587061041
1.7955977988994496,0.9903912321076073
1.8093046523261629,0.9920214311355067
1.8230115057528762,0.9948317849287699
1.8367183591795897,0.9985285158275533
1.850425212606303,1.0031377115590907
1.8641320660330163,1.0078369715733166
1.8778389194597296,1.0134965892868744
1.891545772886443,1.0194694316519808
1.9052526263131564,1.0235849903999963
1.9189594797398697,1.02825273669463
1.9326663331665832,1.0313357467760447
1.9463731865932965,1.0324670916482515
1.9600800400200098,1.0330940415358243
1.973786893446723,1.0307389389478945
1.9874937468734366,1.0279375685733423
2.00120060030015,1.0227248084259526
2.014907453726863,1.0161860675600094
2.0286143071535765,1.0091729351594019
2.04232116058029,1.0005869515876007
2.0560280140070035,0.9924745796316126
2.069734867433717,0.9834438922825985
2.08344172086043,0.9757834660895504
2.0971485742871434,0.9693560868575709
2.1108554277138567,0.9627689039350734
2.12456228114057,0.9600363962753533
2.1382691345672833,0.9567669127790817
2.1519759879939966,0.9579136724128612
2.1656828414207103,0.9602442541369364
2.1793896948474236,0.9649150213461818
2.193096548274137,0.9712694954446703
2.20680340170085,0.9772549073035413
2.2205102551275635,0.9862081479775398
2.234217108554277,0.9939455267835713
2.24792396198099,1.0044002489887416
2.261630815407704,1.0113144682616353
2.275337668834417,1.019364765449868
2.2890445222611304,1.0257167076209273
2.3027513756878437,1.0305580329780304
2.316458229114557,1.034456816924254
2.3301650825412703,1.0355079453516076
2.3438719359679836,1.0352305096943626
2.3575787893946973,1.0328244805130506
2.3712856428214106,1.0296614488210338
2.384992496248124,1.0253914321646271
2.3986993496748372,1.0188883442990329
2.4124062031015505,1.0126622633139326
2.426113056528264,1.006945187947834
2.439819909954977,1.001047252108235
2.4535267633816904,0.9958094670099351
2.467233616808404,0.9915574552522556
2.4809404702351174,0.9883248272570488
2.4946473236618307,0.9856875539022207
2.508354177088544,0.9855878185013867
2.5220610305152573,0.9859442147396451
2.5357678839419706,0.9852709343990995
2.549474737368684,0.9872079768163005
2.5631815907953976,0.9897504621786628
2.576888444222111,0.9923415019179013
2.5905952976488242,0.993423716494132
2.6043021510755375,0.9943019456062517
2.618009004502251,0.9958284576878577
2.631715857928964,0.9959266261557336
2.6454227113556774,0.9956411365948323
2.659129564782391,0.994551431229683
2.6728364182091044,0.9922411006698276
2.6865432716358177,0.9913689026434379
2.700250125062531,0.9889163101483841
2.7139569784892443,0.9869107905812738
2.7276638319159576,0.984719477756371
2.741370685342671,0.9831852782689743
2.755077538769384,0.9831395056566696
2.768784392196098,0.9851432457529213
2.7824912456228112,0.987277244441244
2.7961980990495245,0.990956125672846
2.809904952476238,0.995019538486959
2.823611805902951,1.0011386177171726
2.8373186593296644,1.008996188212877
2.8510255127563777,1.016464579887666
2.8647323661830915,1.0238898429331542
2.8784392196098048,1.0303447341913023
2.892146073036518,1.0366304894468543
2.9058529264632313,1.0414076930629965
2.9195597798899446,1.0441131673715114
2.933266633316658,1.0459054162805201
2.9469734867433712,1.0433870681336466
2.960680340170085,1.0402360931310148
2.9743871935967983,1.0342091235755937
2.9880940470235116,1.0254830636625893
3.001800900450225,1.014768378562321
3.015507753876938,1.0040091172270857
3.0292146073036514,0.9914775721524767
3.0429214607303647,0.9786297273723227
3.056628314157078,0.9664663896709247
3.0703351675837918,0.9549728706394238
3.084042021010505,0.9461458002697388
3.0977488744372184,0.9397191381822191
3.1114557278639317,0.9355255478168685
3.125162581290645,0.9344665235735459
3.1388694347173582,0.937485231607542
3.1525762881440715,0.9417847885793867
3.1662831415707853,0.9506028262440138
3.1799899949974986,0.961650548882018
3.193696848424212,0.9756458216069738
3.207403701850925,0.9906513687493278
3.2211105552776385,1.0053692159231904
3.2348174087043517,1.0202630757801074
3.248524262131065,1.034968214522444
3.262231115557779,1.0481303770733539
3.275937968984492,1.0588439426688145
3.2896448224112054,1.065814927495951
3.3033516758379187,1.069954068153157
3.317058529264632,1.0724643872761435
3.3307653826913453,1.0694037830862115
3.3444722361180586,1.0630798602768516
3.358179089544772,1.0531515455188303
3.3718859429714856,1.0412924158039902
3.385592796398199,1.028212524346568
3.399299649824912,1.0138974639293001
3.4130065032516255,0.9990585293960211
3.4267133566783388,0.9836880728221717
3.440420210105052,0.9709116888813395
3.4541270635317654,0.9591736417351159
3.467833916958479,0.9485114775935375
3.4815407703851924,0.9428891054383678
3.4952476238119057,0.9392265952165832
3.508954477238619,0.9388902265900323
3.5226613306653323,0.9421153542093843
3.5363681840920456,0.9476356776179371
3.550075037518759,0.9557895340823666
3.5637818909454726,0.9652364999043785
3.577488744372186,0.9758030843200377
3.591195597798899,0.9873996321646804
3.6049024512256125,1.0004928940267699
3.6186093046523258,1.0115116225902057
3.632316158079039,1.0187250628943554
3.6460230115057524,1.0282932213886309
3.659729864932466,1.033396827550547
3.6734367183591794,1.0377296757982761
3.6871435717858927,1.0383921798247395
3.700850425212606,1.037342801098623
3.7145572786393193,1.034955279313554
3.7282641320660326,1.0293771485524947
3.741970985492746,1.023233987831106
3.755677838919459,1.0171004058633049
3.769384692346173,1.0097783195495624
3.783091545772886,1.0038261272913056
3.7967983991995995,0.9979159848973835
3.810505252626313,0.9922380874968478
3.824212106053026,0.9881874025561753
3.8379189594797394,0.9871405829665884
3.8516258129064527,0.9867359905494251
3.8653326663331664,0.9869382005713006
3.8790395197598797,0.988736020278853
3.892746373186593,0.9923515476109023
3.9064532266133063,0.9965861875960885
3.9201600800400196,1.000690292083446
3.933866933466733,1.0043414945982676
3.947573786893446,1.006855599191331
3.96128064032016,1.0103651564989373
3.974987493746873,1.0109380873414662
3.9886943471735865,1.0113486355187473
4.0024012006003,1.0085401819696105
4.016108054027013,1.0068067736009247
4.029814907453726,1.0027883979168433
4.04352176088044,0.9978294446498166
4.057228614307153,0.9914839443878226
4.070935467733866,0.9871284408355467
4.08464232116058,0.9808830839884404
4.098349174587293,0.9772975752740265
4.112056028014007,0.9727141000593511
4.12576288144072,0.9710123658619451
4.139469734867434,0.9696641227263632
4.153176588294147,0.9708279128983834
4.16688344172086,0.9748001153467012
4.1805902951475735,0.9793325627832873
4.194297148574287,0.9862457907317163
4.208004002001,0.9943048440494329
4.221710855427713,1.0020309409114734
4.235417708854427,1.010903577784855
4.24912456228114,1.021217132981446
4.262831415707853,1.0292701549789007
4.276538269134567,1.0366234359441706
4.29024512256128,1.041526617173212
4.303951975987993,1.0451515267869687
4.317658829414707,1.0460475825407847
4.331365682841421,1.045708950535524
4.345072536268134,1.0416911679298033
4.358779389694847,1.035467555982197
4.3724862431215605,1.0299918887756718
4.386193096548274,1.0196082054390765
4.399899949974987,1.0107009816969716
4.4136068034017,0.9992479705018361
4.427313656828414,0.9878941727765713
4.441020510255127,0.977939310842701
4.45472736368184,0.9701889750484431
4.468434217108554,0.9620367065927634
4.482141070535267,0.956060783602194
4.49584792396198,0.9526423577402745
4.5095547773886935,0.9524534021309314
4.523261630815408,0.9536292857508153
4.536968484242121,0.9560182552008701
4.550675337668834,0.9612750043362884
4.5643821910955475,0.9683721924776633
4.578089044522261,0.9775895114252614
4.591795897948974,0.9863197697090921
4.605502751375687,0.9953831720147746
4.619209604802401,1.0038744174316125
4.632916458229114,1.0122618779456627
4.646623311655827,1.0211143395185436
4.660330165082541,1.0255350135755579
4.674037018509254,1.0305928235689985
4.687743871935967,1.0333302499063093
4.7014507253626805,1.0338973560241653
4.715157578789395,1.0333826748022947
4.728864432216108,1.0312512839302748
4.742571285642821,1.0293116576591466
4.756278139069535,1.025520229954424
4.769984992496248,1.0203157369951223
4.783691845922961,1.0156007612118836
4.7973986993496744,1.0106104870516488
4.811105552776388,1.0073138537246988
4.824812406203101,1.0030786875232662
4.838519259629814,0.9986577221803148
4.852226113056528,0.995920973352437
4.865932966483241,0.9937680626848862
4.879639819909954,0.9925701958210446
4.8933466733366675,0.9918458503082469
4.907053526763381,0.9898017616782177
4.920760380190095,0.9893632525661913
4.934467233616808,0.9899900287034269
4.948174087043522,0.9892402414838639
4.961880940470235,0.9890768604567783
4.975587793896948,0.9869371740706525
4.9892946473236615,0.984662943313004
5.003001500750375,0.9842251176813881
5.016708354177088,0.9828402849360042
5.030415207603801,0.9793614602514403
5.044122061030515,0.9787333839701096
5.057828914457228,0.9778452740536837
5.071535767883941,0.9774990954482143
5.0852426213106545,0.9777354057909754
5.098949474737368,0.9793578786525396
5.112656328164081,0.9830459619743538
5.126363181590795,0.9874386307067232
5.140070035017509,0.9928720640288228
5.153776888444222,0.9994888802295858
5.167483741870935,1.0063680572508218
5.1811905952976485,1.014487887895422
5.194897448724362,1.0224685327300556
5.208604302151075,1.030189884304299
5.222311155577788,1.036212306752682
5.236018009004502,1.042291641721544
5.249724862431215,1.046784759236273
5.263431715857928,1.0481282794784148
5.2771385692846415,1.0480105690838002
5.290845422711355,1.0457483604459816
5.304552276138068,1.0409801796050016
5.318259129564782,1.0313356873503163
5.331965982991496,1.0248069573011556
5.345672836418209,1.0138534987348446
5.359379689844922,1.0029149350706992
5.3730865432716355,0.9905422079544689
5.386793396698349,0.9780387022602711
5.400500250125062,0.9670456029019474
5.414207103551775,0.9563151891570653
5.427913956978489,0.9480809812993515
5.441620810405202,0.9408593672956249
5.455327663831915,0.9388206899393147
5.4690345172586285,0.9382048062396572
5.482741370685342,0.9407253807827981
5.496448224112055,0.9456726893920215
5.510155077538768,0.9540880315670677
5.523861930965483,0.9643641435812524
5.537568784392196,0.9775269429713036
5.551275637818909,0.9912519609978483
5.5649824912456225,1.0050313092882681
5.578689344672336,1.0183543957720822
5.592396198099049,1.0312325535229778
5.606103051525762,1.0419958919613463
5.619809904952476,1.0511758117055856
5.633516758379189,1.0565389484890693
5.647223611805902,1.060847470327102
5.660930465232616,1.0599654861878993
5.674637318659329,1.0577334595429009
5.688344172086042,1.0514708263824517
5.7020510255127554,1.0440474309888632
5.71575787893947,1.0331210877551547
5.729464732366183,1.0215945997418985
5.743171585792896,1.009935034904342
5.7568784392196095,0.9979897713455421
5.770585292646323,0.9854436055994793
5.784292146073036,0.9757590796894062
5.797998999499749,0.9672600207965023
5.811705852926463,0.9597872086266186
5.825412706353176,0.9556025781379793
5.839119559779889,0.9554781417344138
5.852826413206603,0.9571138583302523
5.866533266633316,0.9596422727281875
5.880240120060029,0.966073564083248
5.8939469734867425,0.9732008302216211
5.907653826913456,0.9800090170389635
5.92136068034017,0.9888284688610027
5.935067533766883,0.9981287568117305
5.9487743871935965,1.0056366732812527
5.96248124062031,1.0130226546953325
5.976188094047023,1.0164410811859852
5.989894947473736,1.0211096116314382
6.00360180090045,1.021853951095419
6.017308654327163,1.0228106729550686
6.031015507753876,1.0208496949574446
6.04472236118059,1.0171505686461173
6.058429214607303,1.012238965582184
6.072136068034016,1.0072461266360273
6.0858429214607295,1.0011119139863445
6.099549774887443,0.9956562397970949
6.113256628314156,0.9919395817628072
6.12696348174087,0.9878586883087993
6.1406703351675835,0.9865374217790222
6.154377188594297,0.985143802097689
6.16808404202101,0.9868928429137597
6.181790895447723,0.9895463257599906
6.195497748874437,0.9938227824564352
6.20920460230115,0.9983295840688041
6.222911455727863,1.0046595447973228
6.236618309154577,1.0115896655157273
6.25032516258129,1.0179900582316128
6.264032016008003,1.0229565628767157
6.2777388694347165,1.026818578616678
6.29144572286143,1.028906492362709
6.305152576288143,1.031019015075261
6.318859429714857,1.029568123690149
6.3325662831415706,1.026625234290982
6.346273136568284,1.019730322320892
6.359979989994997,1.0130617243645876
6.37368684342171,1.0046922632808561
6.387393696848424,0.9950749972755106
6.401100550275137,0.9847447110463785
6.41480740370185,0.975744420288434
6.428514257128564,0.9650687029288865
6.442221110555277,0.9590651564222733
6.45592796398199,0.9533661887352779
6.4696348174087035,0.9486673615233545
6.483341670835417,0.9487793386893456
6.49704852426213,0.9505744566222585
6.510755377688843,0.9540778699633946
6.524462231115558,0.9629109756566522
6.538169084542271,0.9730918605778078
6.551875937968984,0.9832527813212237
6.5655827913956974,0.9959477883670669
6.579289644822411,1.0085569686708307
6.592996498249124,1.0213390178521584
6.606703351675837,1.0330934452982163
6.620410205102551,1.0441208215775317
6.634117058529264,1.05208591563899
6.647823911955977,1.0584815371978404
6.6615307653826905,1.0610229564218854
6.675237618809404,1.0610548337820664
6.688944472236117,1.0586023251354544
6.70265132566283,1.053580409439373
6.716358179089544,1.0446445065137129
6.730065032516258,1.0341556195172643
6.743771885942971,1.0216085838076454
6.7574787393696845,1.0086602757731402
6.771185592796398,0.99611066634991
6.784892446223111,0.9824247932747803
6.798599299649824,0.9705357325160063
6.812306153076538,0.9599967661141688
6.826013006503251,0.9519764704017195
6.839719859929964,0.9472029112998261
6.8534267133566775,0.9450109777890884
6.867133566783391,0.9438465583903395
6.880840420210104,0.946721920298738
6.894547273636817,0.9521531042302932
6.908254127063531,0.9579347126561248
6.921960980490245,0.9656782909465365
6.935667833916958,0.976045718217292
6.9493746873436715,0.9866034063297059
6.963081540770385,0.9969745611739547
6.976788394197098,1.0064137797532162
6.990495247623811,1.014377239646585
7.004202101050525,1.022935771261334
7.017908954477238,1.028963439594439
7.031615807903951,1.0349292733956592
7.0453226613306645,1.0352323474062357
7.059029514757378,1.036558877863328
7.072736368184091,1.033873654998427
7.086443221610804,1.0328650828631365
7.100150075037518,1.0293177548157841
7.113856928464231,1.0251497660538407
7.127563781890945,1.0207705037540458
7.1412706353176585,1.015607395823508
7.154977488744372,1.0106292383930522
7.168684342171085,1.0074026774762534
7.182391195597798,1.0029672370655875
7.196098049024512,1.000252818505396
7.209804902451225,0.9974340088928043
7.223511755877938,0.9937737599106229
7.2372186093046516,0.9935759418680825
7.250925462731365,0.991720056397551
7.264632316158078,0.9914193078892802
7.278339169584791,0.9899986061277322
7.292046023011505,0.9900555431109899
7.305752876438218,0.9890974543181095
7.319459729864932,0.987758575653048
7.3331665832916455,0.9853737175952708
7.346873436718359,0.983044998519981
