time,flux
0.0,1.0317165928645458
0.013706853426713355,1.0289277856200953
0.02741370685342671,1.025939436048197
0.041120560280140064,1.0209130558402637
0.05482741370685342,1.013602096970223
0.06853426713356678,1.0059740097270393
0.08224112056028013,0.9989402951335944
0.09594797398699349,0.9910399105720431
0.10965482741370684,0.9837560576657838
0.1233616808404202,0.977378518129085
0.13706853426713356,0.970133688834899
0.1507753876938469,0.967588481311055
0.16448224112056026,0.9641389586006296
0.1781890945472736,0.961856145358056
0.19189594797398699,0.9601719291018375
0.20560280140070034,0.9635422247924459
0.21930965482741369,0.9658894962091417
0.23301650825412704,0.9690863245910959
0.2467233616808404,0.9740258398877145
0.26043021510755376,0.977560274328737
0.2741370685342671,0.9866048004203681
0.28784392196098046,0.9979650615148656
0.3015507753876938,1.004063197700983
0.31525762881440716,1.0103525846527246
0.3289644822411205,1.0200115053850023
0.34267133566783387,1.0247503378891978
0.3563781890945472,1.0310378061965892
0.3700850425212606,1.0330766540194152
0.38379189594797397,1.0385574773161692
0.3974987493746873,1.0408914150584367
0.41120560280140067,1.0407037939119792
0.424912456228114,1.0358382260671992
0.43861930965482737,1.034450585878563
0.4523261630815407,1.0310713277652255
0.46603301650825407,1.0246671292334788
0.4797398699349674,1.017921470013169
0.4934467233616808,1.0104249409475718
0.5071535767883941,1.002444477005404
0.5208604302151075,0.9955703285471093
0.5345672836418208,0.9864758871488699
0.5482741370685342,0.9802516565143652
0.5619809904952475,0.973249811534198
0.5756878439219609,0.9697465621176471
0.5893946973486743,0.9665705823135811
0.6031015507753876,0.9638795697177193
0.616808404202101,0.9596587419632514
0.6305152576288143,0.9615348212639199
0.6442221110555277,0.9665814656283215
0.657928964482241,0.9663722138933218
0.6716358179089544,0.972727733032174
0.6853426713356677,0.9762933218516117
0.6990495247623811,0.9864750707855642
0.7127563781890944,0.993465297300842
0.7264632316158078,0.9966874552364551
0.7401700850425212,1.0069163886909445
0.7538769384692345,1.0132194611177991
0.7675837918959479,1.0208774488195542
0.7812906453226612,1.024935576246499
0.7949974987493746,1.0314191305678757
0.8087043521760879,1.0318989466837138
0.8224112056028013,1.0342219981019067
0.8361180590295146,1.034399696206425
0.849824912456228,1.0335872493734364
0.8635317658829413,1.0338077305630176
0.8772386193096547,1.0262854448575187
0.8909454727363681,1.0236948232901322
0.9046523261630814,1.0186370750452491
0.9183591795897948,1.0103691037235611
0.9320660330165081,1.0086418188226127
0.9457728864432215,0.9993458116998367
0.9594797398699348,0.9939035160519925
0.9731865932966483,0.9889483795378468
0.9868934467233615,0.9817022811278403
1.000600300150075,0.9755228708055905
1.0143071535767882,0.9721499748930704
1.0280140070035018,0.9713246082256113
1.041720860430215,0.9698082178163184
1.0554277138569284,0.9696314645045563
1.0691345672836416,0.9690008940146305
1.0828414207103552,0.9748992138428887
1.0965482741370685,0.9756500853162907
1.1102551275637818,0.9816357016272564
1.123961980990495,0.9870832135663125
1.1376688344172086,0.9921055394590901
1.1513756878439219,0.9942688602248778
1.1650825412706352,1.0028811353186018
1.1787893946973487,1.0085968753346968
1.192496248124062,1.0106534840203798
1.2062031015507753,1.0158294562030934
1.2199099549774886,1.0183650563014086
1.233616808404202,1.0232308858898815
1.2473236618309154,1.022949113433109
1.2610305152576287,1.0217301439301967
1.274737368684342,1.0233214222903833
1.2884442221110555,1.0238910880563707
1.3021510755377688,1.0199744222878302
1.315857928964482,1.018111338636954
1.3295647823911956,1.0132581923874906
1.3432716358179089,1.0102772998940566
1.3569784892446222,1.0050299938693479
1.3706853426713355,1.005715064563944
1.384392196098049,0.9975387780384225
1.3980990495247623,0.9964319776113659
1.4118059029514756,0.9910191893088411
1.4255127563781889,0.9888966331734379
1.4392196098049024,0.9847171484582014
1.4529264632316157,0.9823609376601393
1.466633316658329,0.9810058108855186
1.4803401700850425,0.9824754167014487
1.4940470235117558,0.9825146102455743
1.507753876938469,0.9853227782346168
1.5214607303651824,0.9874513824224765
1.5351675837918959,0.9890514211204193
1.5488744372186092,0.9915512929510597
1.5625812906453225,0.9954305570686435
1.5762881440720358,0.9969648797581679
1.5899949974987493,0.999519398120907
1.6037018509254626,1.00221921716816
1.6174087043521759,1.0029793038232757
1.6311155577788894,1.0054675928137695
1.6448224112056027,1.006017974063518
1.658529264632316,1.0063380886528746
1.6722361180590293,1.0081958254066319
1.6859429714857428,1.009803243078273
1.699649824912456,1.0087336933344078
1.7133566783391694,1.0092376834857004
1.7270635317658827,1.006785079218272
1.7407703851925962,1.0057742488797867
1.7544772386193095,1.0037833760831756
1.7681840920460228,1.002605309134916
1.7818909454727363,1.0018754277633513
1.7955977988994496,1.0004501067993061
1.8093046523261629,0.997995494063565
1.8230115057528762,0.9977677492018148
1.8367183591795897,0.9982157590319845
1.850425212606303,0.9997595018176847
1.8641320660330163,0.9983660558745115
1.8778389194597296,0.9997362784385755
1.891545772886443,0.9971745772926295
1.9052526263131564,0.9997762943436856
1.9189594797398697,0.9981878430721554
1.9326663331665832,1.0004461790351102
1.9463731865932965,1.0004236711003636
1.9600800400200098,1.0021516163538597
1.973786893446723,1.0023173592825623
1.9874937468734366,1.0022468611571997
2.00120060030015,1.001200867577838
2.014907453726863,0.9992268211080936
2.0286143071535765,1.0009303128746958
2.04232116058029,0.998368172461176
2.0560280140070035,0.9986664661339109
2.069734867433717,0.997252264039365
2.08344172086043,0.9951892418546122
2.0971485742871434,0.994401682526208
2.1108554277138567,0.9913734236178359
2.12456228114057,0.9938285263770827
2.1382691345672833,0.9941492870488833
2.1519759879939966,0.9940036265813512
2.1656828414207103,0.9930292739016809
2.1793896948474236,0.9952054127212218
2.193096548274137,0.9933799174833213
2.20680340170085,0.9939043734431631
2.2205102551275635,0.9946636242354863
2.234217108554277,1.007733478829675
2.24792396198099,1.0000319132511373
2.261630815407704,1.0018319933896351
2.275337668834417,1.004653683075644
2.2890445222611304,1.00833382472699
2.3027513756878437,1.010424470279137
2.316458229114557,1.0135119455392685
2.3301650825412703,1.013286362799287
2.3438719359679836,1.015538841940515
2.3575787893946973,1.0142174149635697
2.3712856428214106,1.015433302097653
2.384992496248124,1.01677972827551
2.3986993496748372,1.0129291828669647
2.4124062031015505,1.0108578733242997
2.426113056528264,1.0097751289867756
2.439819909954977,1.0047600813225073
2.4535267633816904,1.0037026465857506
2.467233616808404,0.9979667891232836
2.4809404702351174,0.9934104103890614
2.4946473236618307,0.9914325489343594
2.508354177088544,0.9880959713179556
2.5220610305152573,0.9851204131905741
2.5357678839419706,0.9807300124999999
2.549474737368684,0.9861276508036326
2.5631815907953976,0.9788655674960786
2.576888444222111,0.9771577443531403
2.5905952976488242,0.9785639466044854
2.6043021510755375,0.9790942730859366
2.618009004502251,0.9821822931600164
2.631715857928964,0.9866046343772745
2.6454227113556774,0.9895603336341767
2.659129564782391,0.9949668435582057
2.6728364182091044,0.9994513379681939
2.6865432716358177,1.002926201278765
2.700250125062531,1.0094621145259235
2.7139569784892443,1.0144759780379244
2.7276638319159576,1.0203273647863471
2.741370685342671,1.0216429847724477
2.755077538769384,1.025808144244386
2.768784392196098,1.0289741107801271
2.7824912456228112,1.0289464236397037
2.7961980990495245,1.0298507904467336
2.809904952476238,1.029250161019539
2.823611805902951,1.0272543629852773
2.8373186593296644,1.0220820347757777
2.8510255127563777,1.0159311059634737
2.8647323661830915,1.013271572877619
2.8784392196098048,1.0071037460425818
2.892146073036518,1.0000829255616202
2.9058529264632313,0.9939520207535162
2.9195597798899446,0.9876473153150064
2.933266633316658,0.9797115104012178
2.9469734867433712,0.9748927316907026
2.960680340170085,0.9725746131745724
2.9743871935967983,0.971332270791805
2.9880940470235116,0.9671747815704047
3.001800900450225,0.964770255893804
3.015507753876938,0.9673651920857425
3.0292146073036514,0.967891747568597
3.0429214607303647,0.9720331151792173
3.056628314157078,0.9764260286873536
3.0703351675837918,0.9815846809338225
3.084042021010505,0.989213027521547
3.0977488744372184,0.9953753934102088
3.1114557278639317,1.0006047508667346
3.125162581290645,1.0079160575138961
3.1388694347173582,1.0144316527477073
3.1525762881440715,1.0210725019909273
3.1662831415707853,1.0282583781587218
3.1799899949974986,1.0316241030413762
3.193696848424212,1.0359016732645117
3.207403701850925,1.0370836159633714
3.2211105552776385,1.0367135758131638
3.2348174087043517,1.0355626086185856
3.248524262131065,1.035806230352129
3.262231115557779,1.0293167213593213
3.275937968984492,1.0234028883562052
3.2896448224112054,1.018033537949275
3.3033516758379187,1.013628003538693
3.317058529264632,1.0045589634316787
3.3307653826913453,0.994750803034299
3.3444722361180586,0.9904165136201927
3.358179089544772,0.9812996572908309
3.3718859429714856,0.9773875970483283
3.385592796398199,0.9688496505153281
3.399299649824912,0.9657761916804474
3.4130065032516255,0.9636485275310512
3.4267133566783388,0.9622574884632518
3.440420210105052,0.9618375267249172
3.4541270635317654,0.9650434822190641
3.467833916958479,0.965893083711405
3.4815407703851924,0.9725966882001678
3.4952476238119057,0.9762416801605919
3.508954477238619,0.9817675437369106
3.5226613306653323,0.9886413274961918
3.5363681840920456,0.9984948242816024
3.550075037518759,1.006142838076726
3.5637818909454726,1.0131199488822682
3.577488744372186,1.0198889170904546
3.591195597798899,1.027085698638726
3.6049024512256125,1.0321668245490798
3.6186093046523258,1.0350365065065785
3.632316158079039,1.0361894893844328
3.6460230115057524,1.037934576325479
3.659729864932466,1.0381373369930853
3.6734367183591794,1.0352954843319278
3.6871435717858927,1.0322593294951858
3.700850425212606,1.0288866833210706
3.7145572786393193,1.021589321315357
3.7282641320660326,1.015426743883704
3.741970985492746,1.009129452113417
3.755677838919459,0.998026822922516
3.769384692346173,0.9907796267001537
3.783091545772886,0.985787447363652
3.7967983991995995,0.9792634677704931
3.810505252626313,0.9737123973068489
3.824212106053026,0.9689022662408658
3.8379189594797394,0.9695098619411704
3.8516258129064527,0.9643366083821027
3.8653326663331664,0.9618469514200961
3.8790395197598797,0.9629557195777424
3.892746373186593,0.9676641616849332
3.9064532266133063,0.9700935430299338
3.9201600800400196,0.9737917283002081
3.933866933466733,0.9809001816477577
3.947573786893446,0.9860162877771321
3.96128064032016,0.995062835424501
3.974987493746873,1.0016609230239675
3.9886943471735865,1.0079100248043495
4.0024012006003,1.0154863784068804
4.016108054027013,1.0207184999045438
4.029814907453726,1.026863579524474
4.04352176088044,1.0298574736179615
4.057228614307153,1.033112196195144
4.070935467733866,1.0328715432917772
4.08464232116058,1.0348973105316441
4.098349174587293,1.0327602526146913
4.112056028014007,1.0310711711587277
4.12576288144072,1.0268895636053754
4.139469734867434,1.0215879288362444
4.153176588294147,1.0141592613331387
4.16688344172086,1.0096245622318596
4.1805902951475735,1.0047830665380426
4.194297148574287,0.9965776581696068
4.208004002001,0.9899882268293304
4.221710855427713,0.9850605244654215
4.235417708854427,0.9827899562288644
4.24912456228114,0.9770660720933135
4.262831415707853,0.9725480184201043
4.276538269134567,0.9748218489759102
4.29024512256128,0.9715744557715891
4.303951975987993,0.9726723465221667
4.317658829414707,0.9731029278562645
4.331365682841421,0.9767867533662837
4.345072536268134,0.9778832385360762
4.358779389694847,0.9822361009824794
4.3724862431215605,0.9874154202373889
4.386193096548274,0.9956317773837133
4.399899949974987,0.9986130094594906
4.4136068034017,1.0031737077061968
4.427313656828414,1.0100922750169392
4.441020510255127,1.0121968042590088
4.45472736368184,1.013664174852977
4.468434217108554,1.019161862638499
4.482141070535267,1.0220322907406123
4.49584792396198,1.022278760081784
4.5095547773886935,1.0237243764981696
4.523261630815408,1.0231286870037344
4.536968484242121,1.0183039535993434
4.550675337668834,1.0177011429283467
4.5643821910955475,1.0153191867778937
4.578089044522261,1.0109125865919248
4.591795897948974,1.006937258514784
4.605502751375687,1.0050631033790614
4.619209604802401,1.001879994173376
4.632916458229114,0.9953615674127776
4.646623311655827,0.99209129981863
4.660330165082541,0.9903245887067224
4.674037018509254,0.9856321710427056
4.687743871935967,0.9873192075070666
4.7014507253626805,0.9859927215664083
4.715157578789395,0.985221756123911
4.728864432216108,0.9839202500219559
4.742571285642821,0.9858860694829705
4.756278139069535,0.9867500090742002
4.769984992496248,0.9893390331637656
4.783691845922961,0.9913053911492241
4.7973986993496744,0.9929576376777124
4.811105552776388,0.9960491690109676
4.824812406203101,0.9990488915936202
4.838519259629814,1.0019145179072337
4.852226113056528,1.0027986570527025
4.865932966483241,1.0060033448358443
4.879639819909954,1.0066418749382633
4.8933466733366675,1.00730692782334
4.907053526763381,1.0069217600177462
4.920760380190095,1.0088242580270053
4.934467233616808,1.0060652356502138
4.948174087043522,1.0062272134984391
4.961880940470235,1.0051405909627011
4.975587793896948,1.004995922803532
4.9892946473236615,1.0041547414860954
5.003001500750375,1.0042381427234552
5.016708354177088,1.0026937954716488
5.030415207603801,1.0015301332586317
5.044122061030515,0.998737957206134
5.057828914457228,1.000696232036882
5.071535767883941,1.0017353731011542
5.0852426213106545,0.9974857002006421
5.098949474737368,1.000933190101014
5.112656328164081,1.0011205332070774
5.126363181590795,0.9987425678735163
5.140070035017509,1.0002785132516618
5.153776888444222,1.0000445670148774
5.167483741870935,1.0003498354285525
5.1811905952976485,1.001257393945901
5.194897448724362,1.002133775477628
5.208604302151075,1.0031652640005242
5.222311155577788,1.0005969820845748
5.236018009004502,1.0015947369084095
5.249724862431215,1.0025345475807783
5.263431715857928,0.9998366879540147
5.2771385692846415,0.9997473377031544
5.290845422711355,0.9979688589186932
5.304552276138068,0.9983108047945188
5.318259129564782,0.9967302561833582
5.331965982991496,0.9954423236448972
5.345672836418209,0.9916489912503859
5.359379689844922,0.9896475456778122
5.3730865432716355,0.9898246871418463
5.386793396698349,0.9910847707603814
5.400500250125062,0.9887780940411278
5.414207103551775,0.9927191620371012
5.427913956978489,0.9928761596960987
5.441620810405202,0.9899689761829301
5.455327663831915,0.9970244371351454
5.4690345172586285,0.9946961781485681
5.482741370685342,1.0004276412993143
5.496448224112055,1.0009095645708772
5.510155077538768,1.0037794784929646
5.523861930965483,1.0089233782785803
5.537568784392196,1.010617450044606
5.551275637818909,1.0127260895528587
5.5649824912456225,1.015770217470683
5.578689344672336,1.0161502567169165
5.592396198099049,1.0167514561459006
5.606103051525762,1.0200001175922213
5.619809904952476,1.0195800808961701
5.633516758379189,1.0153709645164661
5.647223611805902,1.0147392338247787
5.660930465232616,1.0138487728767454
5.674637318659329,1.008240751994182
5.688344172086042,1.005890613398549
5.7020510255127554,1.0016248006282413
5.71575787893947,0.9966663440382509
5.729464732366183,0.9913299426706256
5.743171585792896,0.9871695969817742
5.7568784392196095,0.9831081985917703
5.770585292646323,0.9823291493717665
5.784292146073036,0.9770552651144271
5.797998999499749,0.9790336293567398
5.811705852926463,0.9772287555186123
5.825412706353176,0.976968648582613
5.839119559779889,0.976680388933592
5.852826413206603,0.979185237075673
5.866533266633316,0.9808558901827903
5.880240120060029,0.9829845002102211
5.8939469734867425,0.9883511666455679
5.907653826913456,0.9950148829108838
5.92136068034017,1.0007110025477848
5.935067533766883,1.0048727918014573
5.9487743871935965,1.0121432162579167
5.96248124062031,1.0166356641436243
5.976188094047023,1.0217168786743427
5.989894947473736,1.0233606690627903
6.00360180090045,1.0276544032073907
6.017308654327163,1.0303287894270663
6.031015507753876,1.0323880950995343
6.04472236118059,1.0281865879728544
6.058429214607303,1.0276511726221056
6.072136068034016,1.0247778622526686
6.0858429214607295,1.021265940464749
6.099549774887443,1.0187289683736431
6.113256628314156,1.010953325146212
6.12696348174087,1.0053176771490546
6.1406703351675835,0.9977345281768784
6.154377188594297,0.9916070151903392
6.16808404202101,0.9849636993973413
6.181790895447723,0.9827290823573872
6.195497748874437,0.975892922817476
6.20920460230115,0.974000999291001
6.222911455727863,0.9663922924884055
6.236618309154577,0.9682301287605488
6.25032516258129,0.9641689688856515
6.264032016008003,0.9654173833582503
6.2777388694347165,0.9682688097612804
6.29144572286143,0.9714717112408896
6.305152576288143,0.9766286588468767
6.318859429714857,0.9845514029769273
6.3325662831415706,0.9893850703253884
6.346273136568284,0.99579750922663
6.359979989994997,1.0024752036851563
6.37368684342171,1.0107874479499113
6.387393696848424,1.0212069641876107
6.401100550275137,1.0240454476660446
6.41480740370185,1.0277964353411837
6.428514257128564,1.034860234040859
6.442221110555277,1.036873410378049
6.45592796398199,1.0362322934765915
6.4696348174087035,1.0379059722357058
6.483341670835417,1.0377566706010841
6.49704852426213,1.0344753632514905
6.510755377688843,1.0311125032648278
6.524462231115558,1.0223986693197913
6.538169084542271,1.0167839029955683
6.551875937968984,1.0103588045423446
6.5655827913956974,1.0006772246521132
6.579289644822411,0.9940547063716787
6.592996498249124,0.9862668205984065
6.606703351675837,0.9802153869807189
6.620410205102551,0.9737543493372524
6.634117058529264,0.9689264451566088
6.647823911955977,0.9640084863213042
6.6615307653826905,0.9628485981856426
6.675237618809404,0.9597538545870926
6.688944472236117,0.9621372983594418
6.70265132566283,0.9616891475760477
6.716358179089544,0.9701855277685713
6.730065032516258,0.9745576323790217
6.743771885942971,0.9783690609402395
6.7574787393696845,0.9829953683175856
6.771185592796398,0.9899158003683469
6.784892446223111,0.9992754362265257
6.798599299649824,1.0072200693901747
6.812306153076538,1.0156271647995683
6.826013006503251,1.0192376826975398
6.839719859929964,1.0272555599235875
6.8534267133566775,1.0318273602796313
6.867133566783391,1.0368613484094134
6.880840420210104,1.0361025496793013
6.894547273636817,1.03872892434426
6.908254127063531,1.0367682575440351
6.921960980490245,1.0337420547592335
6.935667833916958,1.0326308145730199
6.9493746873436715,1.0276221940077561
6.963081540770385,1.0181895526770735
6.976788394197098,1.0130848212896797
6.990495247623811,1.0041825653520928
7.004202101050525,0.9999628444398678
7.017908954477238,0.9907152649510704
7.031615807903951,0.9849992692841831
7.0453226613306645,0.9775610946772304
7.059029514757378,0.9723706554499044
7.072736368184091,0.9688541092880596
7.086443221610804,0.9655754164654449
7.100150075037518,0.9654039167428952
7.113856928464231,0.9640625060875219
7.127563781890945,0.9643281379210413
7.1412706353176585,0.9672630694832614
7.154977488744372,0.9707043881521134
7.168684342171085,0.9763940792855704
7.182391195597798,0.9827586589824151
7.196098049024512,0.9889144101376018
7.209804902451225,0.9963310045996614
7.223511755877938,1.004190401740764
7.2372186093046516,1.0097943105620402
7.250925462731365,1.0164552842023615
7.264632316158078,1.0203044968142914
7.278339169584791,1.0245412375809901
7.292046023011505,1.0300159122605577
7.305752876438218,1.032070730489702
7.319459729864932,1.034727062281683
7.3331665832916455,1.0324938320398944
7.346873436718359,1.0307928547241312
