time,flux
0.0,1.0095198911751948
0.013706853426713355,1.0047616630438494
0.02741370685342671,1.0023594855416393
0.041120560280140064,0.9975535672798393
0.05482741370685342,0.9923108379062583
0.06853426713356678,0.9893597137234937
0.08224112056028013,0.9860305618081254
0.09594797398699349,0.9823969835214055
0.10965482741370684,0.9814718565891568
0.1233616808404202,0.9783078397457593
0.13706853426713356,0.9773386928895842
0.1507753876938469,0.9764369737018231
0.16448224112056026,0.9767527556717095
0.1781890945472736,0.9785778297544012
0.19189594797398699,0.9800742984478428
0.20560280140070034,0.9805145487799137
0.21930965482741369,0.9863332087879109
0.23301650825412704,0.9892079769110443
0.2467233616808404,0.9921829975864411
0.26043021510755376,0.9959260416691778
0.2741370685342671,1.0003671105093108
0.28784392196098046,1.00514518739846
0.3015507753876938,1.0090580486572256
0.31525762881440716,1.012947118173743
0.3289644822411205,1.015042386913172
0.34267133566783387,1.0175916484166323
0.3563781890945472,1.0189789655062074
0.3700850425212606,1.021446441649936
0.38379189594797397,1.021881317969826
0.3974987493746873,1.0230078626543744
0.41120560280140067,1.0224497000509474
0.424912456228114,1.0209751154270192
0.43861930965482737,1.018893191113967
0.4523261630815407,1.0159190450483204
0.46603301650825407,1.013604870431123
0.4797398699349674,1.0147553280430903
0.4934467233616808,1.0056474655773575
0.5071535767883941,1.0015289762746347
0.5208604302151075,0.9973365991432758
0.5345672836418208,0.9932678729134644
0.5482741370685342,0.9909093610262423
0.5619809904952475,0.9865699675856412
0.5756878439219609,0.9836241482663138
0.5893946973486743,0.9797329977124851
0.6031015507753876,0.9788684439716463
0.616808404202101,0.9771461722252057
0.6305152576288143,0.9762128429044997
0.6442221110555277,0.9782512757688441
0.657928964482241,0.9775230512284484
0.6716358179089544,0.9803452837771383
0.6853426713356677,0.9822299879205455
0.6990495247623811,0.9841807577330629
0.7127563781890944,0.9886897687321993
0.7264632316158078,0.9924047355376009
0.7401700850425212,0.9962896649894003
0.7538769384692345,0.9998889237363898
0.7675837918959479,1.0050677672600898
0.7812906453226612,1.008598476256881
0.7949974987493746,1.0112840535640402
0.8087043521760879,1.014280176788257
0.8224112056028013,1.0175262769958817
0.8361180590295146,1.0199390923998641
0.849824912456228,1.0219423680432607
0.8635317658829413,1.0231617697095907
0.8772386193096547,1.0231610921170373
0.8909454727363681,1.0220487947054766
0.9046523261630814,1.0210593688872707
0.9183591795897948,1.0185851993947588
0.9320660330165081,1.0168896979605009
0.9457728864432215,1.0136540515279875
0.9594797398699348,1.0092368517421377
0.9731865932966483,1.00608687889809
0.9868934467233615,1.0018476635274465
1.000600300150075,0.9983980533052171
1.0143071535767882,0.9935718191672473
1.0280140070035018,0.9900142514547878
1.041720860430215,0.9866190993886063
1.0554277138569284,0.9830092530902346
1.0691345672836416,0.9807265920966026
1.0828414207103552,0.9796210447229258
1.0965482741370685,0.9778931245287137
1.1102551275637818,0.9771467509413418
1.123961980990495,0.9775543129730524
1.1376688344172086,0.9784246525409515
1.1513756878439219,0.9803613288946196
1.1650825412706352,0.9825793124047504
1.1787893946973487,0.9844519143273709
1.192496248124062,0.9885069140895566
1.2062031015507753,0.9916008271713832
1.2199099549774886,0.9964112128168217
1.233616808404202,1.00064152919163
1.2473236618309154,1.004756793240342
1.2610305152576287,1.0090610588508553
1.274737368684342,1.0115463602441501
1.2884442221110555,1.0150837790353249
1.3021510755377688,1.0186762641637896
1.315857928964482,1.020938555601855
1.3295647823911956,1.0213507720785155
1.3432716358179089,1.0222041775801287
1.3569784892446222,1.0224962849868684
1.3706853426713355,1.0215008868373279
1.384392196098049,1.0214051035993954
1.3980990495247623,1.0189643222516904
1.4118059029514756,1.0166296686956457
1.4255127563781889,1.0137445055947898
1.4392196098049024,1.0091374692196524
1.4529264632316157,1.006070560402784
1.466633316658329,1.0014131885047663
1.4803401700850425,0.9970671355539316
1.4940470235117558,0.9934550761363548
1.507753876938469,0.9892949976664089
1.5214607303651824,0.9867865873376664
1.5351675837918959,0.9831694959721657
1.5488744372186092,0.9813302442323154
1.5625812906453225,0.9781694449534502
1.5762881440720358,0.9785574479939978
1.5899949974987493,0.977710623844262
1.6037018509254626,0.9776728107966767
1.6174087043521759,0.9781588145484674
1.6311155577788894,0.9804467521764036
1.6448224112056027,0.9824204963375766
1.658529264632316,0.9850867591958581
1.6722361180590293,0.9885961577610054
1.6859429714857428,0.991681059340572
1.699649824912456,0.9967204601404035
1.7133566783391694,0.9986557529693714
1.7270635317658827,1.005518636130659
1.7407703851925962,1.0069923305870796
1.7544772386193095,1.0121153016373707
1.7681840920460228,1.015124333501927
1.7818909454727363,1.0175135742508588
1.7955977988994496,1.0211523233029367
1.8093046523261629,1.0220344438646767
1.8230115057528762,1.022350551785624
1.8367183591795897,1.0228085517747036
1.850425212606303,1.022418713623721
1.8641320660330163,1.0209884857086289
1.8778389194597296,1.0190640791245698
1.891545772886443,1.0165649401935513
1.9052526263131564,1.0140049962290363
1.9189594797398697,1.0101862250959535
1.9326663331665832,1.0057025436669498
1.9463731865932965,1.0015524177787212
1.9600800400200098,0.9980343117945057
1.973786893446723,0.994898485154926
1.9874937468734366,0.9897444620072946
2.00120060030015,0.9867815616872048
2.014907453726863,0.9833621970950481
2.0286143071535765,0.9821505006270523
2.04232116058029,0.9783205726459795
2.0560280140070035,0.9778554731975704
2.069734867433717,0.9774265006545972
2.08344172086043,0.9768471981577852
2.0971485742871434,0.9782682383084208
2.1108554277138567,0.9802313999494455
2.12456228114057,0.9827599378853885
2.1382691345672833,0.9853741039424748
2.1519759879939966,0.9878813659783284
2.1656828414207103,0.9916041253076634
2.1793896948474236,0.9967658011510897
2.193096548274137,1.0008190757323936
2.20680340170085,1.0034207536950919
2.2205102551275635,1.0082175177901704
2.234217108554277,1.0120329699610984
2.24792396198099,1.0150190385605298
2.261630815407704,1.0181212671924644
2.275337668834417,1.020260757715796
2.2890445222611304,1.0211167737874656
2.3027513756878437,1.0227461444164572
2.316458229114557,1.024213191602976
2.3301650825412703,1.0227154889483778
2.3438719359679836,1.0203578330655088
2.3575787893946973,1.019307035972196
2.3712856428214106,1.0153607531216342
2.384992496248124,1.0133771236828963
2.3986993496748372,1.010804086852265
2.4124062031015505,1.0061223642461121
2.426113056528264,1.0017426735518151
2.439819909954977,0.9981746494758498
2.4535267633816904,0.9940166280920735
2.467233616808404,0.9896653996795065
2.4809404702351174,0.9859593142390235
2.4946473236618307,0.9836646616926998
2.508354177088544,0.9815237123702796
2.5220610305152573,0.9790331610107469
2.5357678839419706,0.9774101112544932
2.549474737368684,0.9763999473316985
2.5631815907953976,0.9775410504321239
2.576888444222111,0.9794839212898632
2.5905952976488242,0.9799048097663425
2.6043021510755375,0.9822265026764587
2.618009004502251,0.9847656803870751
2.631715857928964,0.9885108784702229
2.6454227113556774,0.9910920830275006
2.659129564782391,0.9955806778855594
2.6728364182091044,0.9995712449035596
2.6865432716358177,1.004911275831043
2.700250125062531,1.0091169007925933
2.7139569784892443,1.0113940510249486
2.7276638319159576,1.0152665752627736
2.741370685342671,1.018250168973142
2.755077538769384,1.020087205019719
2.768784392196098,1.0217014206063908
2.7824912456228112,1.0232675541093024
2.7961980990495245,1.022389457513209
2.809904952476238,1.0223738116266834
2.823611805902951,1.0207584130083331
2.8373186593296644,1.0189453975980047
2.8510255127563777,1.0163016037412782
2.8647323661830915,1.0141724879646243
2.8784392196098048,1.010148941807236
2.892146073036518,1.005466949846643
2.9058529264632313,1.0019881143445422
2.9195597798899446,0.9972381704905228
2.933266633316658,0.9941849184559507
2.9469734867433712,0.9892631953472055
2.960680340170085,0.9860981687939709
2.9743871935967983,0.9837351376387062
2.9880940470235116,0.9809942551247645
3.001800900450225,0.9788402198861408
3.015507753876938,0.978124515352702
3.0292146073036514,0.9775127985569175
3.0429214607303647,0.9763873113479128
3.056628314157078,0.9788478198137701
3.0703351675837918,0.9791681818547638
3.084042021010505,0.9820019124226825
3.0977488744372184,0.984839308790137
3.1114557278639317,0.9882434395264948
3.125162581290645,0.9922367044663932
3.1388694347173582,0.9959362698021355
3.1525762881440715,0.9993519636980451
3.1662831415707853,1.0045682182194826
3.1799899949974986,1.008539341235511
3.193696848424212,1.01122450761483
3.207403701850925,1.0154716883813046
3.2211105552776385,1.0171640798089097
3.2348174087043517,1.0212064979110411
3.248524262131065,1.0218278905731542
3.262231115557779,1.0226346182054546
3.275937968984492,1.0227864204796973
3.2896448224112054,1.023358085446709
3.3033516758379187,1.021176054563199
3.317058529264632,1.0193219327590042
3.3307653826913453,1.0162710169280056
3.3444722361180586,1.0131282914954876
3.358179089544772,1.0094501428698575
3.3718859429714856,1.0063394763909042
3.385592796398199,1.0019550092721254
3.399299649824912,0.997639428262937
3.4130065032516255,0.993937460991058
3.4267133566783388,0.98905298805407
3.440420210105052,0.9875288338043937
3.4541270635317654,0.9835471436570085
3.467833916958479,0.9809225324994781
3.4815407703851924,0.978937648576826
3.4952476238119057,0.9778441523846167
3.508954477238619,0.9774183139034897
3.5226613306653323,0.9770361018606103
3.5363681840920456,0.9783071385944746
3.550075037518759,0.9800783945321889
3.5637818909454726,0.9817342008509438
3.577488744372186,0.9839712452970745
3.591195597798899,0.988654240332319
3.6049024512256125,0.9925724310460655
3.6186093046523258,0.9958008125737036
3.632316158079039,0.9989013505242731
3.6460230115057524,1.0035413772298059
3.659729864932466,1.0079519902402851
3.6734367183591794,1.0109741827043746
3.6871435717858927,1.0150423538955928
3.700850425212606,1.0175191241291592
3.7145572786393193,1.0196348474591683
3.7282641320660326,1.0212209274484563
3.741970985492746,1.0226088611822544
3.755677838919459,1.0236315202410415
3.769384692346173,1.0228391958079972
3.783091545772886,1.0215192786408016
3.7967983991995995,1.0192769471176322
3.810505252626313,1.0157515994766038
3.824212106053026,1.0145670048251398
3.8379189594797394,1.0100343672878942
3.8516258129064527,1.0060965425086938
3.8653326663331664,1.0026534175950834
3.8790395197598797,0.9989847615890654
3.892746373186593,0.9932586468902161
3.9064532266133063,0.9889794294009839
3.9201600800400196,0.9865904149500748
3.933866933466733,0.9834238052836641
3.947573786893446,0.9812640337731567
3.96128064032016,0.97854408443076
3.974987493746873,0.976399131817388
3.9886943471735865,0.9769554653424362
4.0024012006003,0.9766817144380623
4.016108054027013,0.9795973349222874
4.029814907453726,0.9797297856028119
4.04352176088044,0.9814787889883329
4.057228614307153,0.9851466396251847
4.070935467733866,0.987468278595563
4.08464232116058,0.9915773766422183
4.098349174587293,0.9965714324082318
4.112056028014007,0.9998423851334959
4.12576288144072,1.0040027606563953
4.139469734867434,1.0080801465733762
4.153176588294147,1.0108151483630077
4.16688344172086,1.0155155681528143
4.1805902951475735,1.018325897951983
4.194297148574287,1.0202845598839085
4.208004002001,1.0219366251720614
4.221710855427713,1.0229093420744875
4.235417708854427,1.0229248554785795
4.24912456228114,1.0221619974478133
4.262831415707853,1.0215304908913052
4.276538269134567,1.0194764488421508
4.29024512256128,1.0168185951518371
4.303951975987993,1.0134859253175055
4.317658829414707,1.0100540698020162
4.331365682841421,1.0057510757675816
4.345072536268134,1.0022509987284212
4.358779389694847,0.9976170783992516
4.3724862431215605,0.9954111777663766
4.386193096548274,0.9903500488505409
4.399899949974987,0.9874210570008455
4.4136068034017,0.9838841473909751
4.427313656828414,0.9813921927261565
4.441020510255127,0.9787025716174242
4.45472736368184,0.978836343479545
4.468434217108554,0.9772104465054738
4.482141070535267,0.9775787389159684
4.49584792396198,0.9793665209588988
4.5095547773886935,0.9791989077250007
4.523261630815408,0.9823456551716575
4.536968484242121,0.984640235203317
4.550675337668834,0.9886136143826871
4.5643821910955475,0.991949799295147
4.578089044522261,0.9956155071536217
4.591795897948974,0.999663125455926
4.605502751375687,1.003977894726742
4.619209604802401,1.0089917835302546
4.632916458229114,1.0121450498293156
4.646623311655827,1.014577935427427
4.660330165082541,1.0174589316725509
4.674037018509254,1.0202870094770937
4.687743871935967,1.0220073728650143
4.7014507253626805,1.0231679004477219
4.715157578789395,1.0228738311470433
4.728864432216108,1.0217363875442964
4.742571285642821,1.0213112870538046
4.756278139069535,1.0190838264383582
4.769984992496248,1.0169218015572574
4.783691845922961,1.0139858516940052
4.7973986993496744,1.010135266575148
4.811105552776388,1.0058621101854617
4.824812406203101,1.0026061365004222
4.838519259629814,0.9982322292662119
4.852226113056528,0.9943465373851164
4.865932966483241,0.9902279867284549
4.879639819909954,0.9862609539845054
4.8933466733366675,0.9835884078719138
4.907053526763381,0.9816180319877098
4.920760380190095,0.9785860361695703
4.934467233616808,0.9777611979197663
4.948174087043522,0.976413293802801
4.961880940470235,0.978106580701801
4.975587793896948,0.9776072549226471
4.9892946473236615,0.9789727599141479
5.003001500750375,0.983078736239689
5.016708354177088,0.985137031268404
5.030415207603801,0.9878108985309285
5.044122061030515,0.9919672568124455
5.057828914457228,0.9952190831921854
5.071535767883941,0.9995217086597283
5.0852426213106545,1.0042662521934898
5.098949474737368,1.0076113334954258
5.112656328164081,1.0120603801264723
5.126363181590795,1.0150607912642147
5.140070035017509,1.0173913037725304
5.153776888444222,1.0195881688034514
5.167483741870935,1.021599824033304
5.1811905952976485,1.0214890284695493
5.194897448724362,1.0226514735236338
5.208604302151075,1.0216848295014895
5.222311155577788,1.0210775565015344
5.236018009004502,1.0186580897051212
5.249724862431215,1.0174318492414784
5.263431715857928,1.0138899462929083
5.2771385692846415,1.0116251522207533
5.290845422711355,1.007089064131086
5.304552276138068,1.0014674267045456
5.318259129564782,0.9987761716814144
5.331965982991496,0.9945013753036624
5.345672836418209,0.9898529138105819
5.359379689844922,0.9868974952529084
5.3730865432716355,0.98422578593926
5.386793396698349,0.9812317524882971
5.400500250125062,0.9787676356434649
5.414207103551775,0.9776018729172578
5.427913956978489,0.9773616391818465
5.441620810405202,0.9782395986023235
5.455327663831915,0.9777177714076535
5.4690345172586285,0.9798080007076524
5.482741370685342,0.9811027939311799
5.496448224112055,0.9849800682023793
5.510155077538768,0.9875556343135272
5.523861930965483,0.9917110447848736
5.537568784392196,0.9956459681693998
5.551275637818909,0.9995263142584894
5.5649824912456225,1.0047175135956181
5.578689344672336,1.0073995705332877
5.592396198099049,1.0112269440023178
5.606103051525762,1.013716633434417
5.619809904952476,1.0174433646606758
5.633516758379189,1.0202121617955435
5.647223611805902,1.0212879170082219
5.660930465232616,1.021819857405042
5.674637318659329,1.0224235628374245
5.688344172086042,1.022775931279743
5.7020510255127554,1.0217820022347648
5.71575787893947,1.0184105569424406
5.729464732366183,1.0168547332850089
5.743171585792896,1.0142422785482028
5.7568784392196095,1.0106208722617775
5.770585292646323,1.0060327718482136
5.784292146073036,1.003089250539227
5.797998999499749,0.997537745918313
5.811705852926463,0.9948324743082874
5.825412706353176,0.9906181846712008
5.839119559779889,0.9870417697299327
5.852826413206603,0.9834917841613334
5.866533266633316,0.9823107166591937
5.880240120060029,0.9785814888505431
5.8939469734867425,0.9769661855004708
5.907653826913456,0.9775781641404041
5.92136068034017,0.9775204638987028
5.935067533766883,0.9780936661896018
5.9487743871935965,0.9789210423624198
5.96248124062031,0.9814789756918446
5.976188094047023,0.9846136100011399
5.989894947473736,0.987324921909525
6.00360180090045,0.9919171702740714
6.017308654327163,0.9962571784429582
6.031015507753876,0.99974803409111
6.04472236118059,1.0041448556250356
6.058429214607303,1.0073013412551004
6.072136068034016,1.0122971725810819
6.0858429214607295,1.014698591751354
6.099549774887443,1.0181651225452617
6.113256628314156,1.0199529383419834
6.12696348174087,1.0207171316097143
6.1406703351675835,1.0227086250702548
6.154377188594297,1.024037930876032
6.16808404202101,1.0225017041106694
6.181790895447723,1.0212171224031557
6.195497748874437,1.0186861775862528
6.20920460230115,1.0164874087860192
6.222911455727863,1.0136654802801146
6.236618309154577,1.010683198092291
6.25032516258129,1.006881537505272
6.264032016008003,1.002362055701801
6.2777388694347165,0.9981466820738745
6.29144572286143,0.9949346686080619
6.305152576288143,0.9894565352201854
6.318859429714857,0.9871333116216686
6.3325662831415706,0.9837401753002748
6.346273136568284,0.9812344210966023
6.359979989994997,0.9798746430760593
6.37368684342171,0.9781192175478765
6.387393696848424,0.977589866230295
6.401100550275137,0.9768444658360548
6.41480740370185,0.9776293466232509
6.428514257128564,0.9790824478375242
6.442221110555277,0.9819087298091221
6.45592796398199,0.9843326392906429
6.4696348174087035,0.987187596250846
6.483341670835417,0.9929240349099981
6.49704852426213,0.9965323024837685
6.510755377688843,0.9994665646055045
6.524462231115558,1.0039907802706107
6.538169084542271,1.0073869720046256
6.551875937968984,1.011104121425642
6.5655827913956974,1.0155896148017944
6.579289644822411,1.0169941617671223
6.592996498249124,1.0189241922801415
6.606703351675837,1.022131201397458
6.620410205102551,1.0224685599210916
6.634117058529264,1.0234159348045517
6.647823911955977,1.0227338052626604
6.6615307653826905,1.0203699118283203
6.675237618809404,1.0193478785992458
6.688944472236117,1.0173494104417733
6.70265132566283,1.01353788742272
6.716358179089544,1.0107698518292159
6.730065032516258,1.0057460495567323
6.743771885942971,1.0029455771002795
6.7574787393696845,0.99850308910898
6.771185592796398,0.993453189440686
6.784892446223111,0.9900661951852352
6.798599299649824,0.9875714480707373
6.812306153076538,0.9833431700762775
6.826013006503251,0.9809213517140802
6.839719859929964,0.9793749667118913
6.8534267133566775,0.9766297792692024
6.867133566783391,0.9774953154185435
6.880840420210104,0.9779649056881958
6.894547273636817,0.9774541694271976
6.908254127063531,0.9780712059130263
6.921960980490245,0.9819519576693064
6.935667833916958,0.9843663825723605
6.9493746873436715,0.9874464805180242
6.963081540770385,0.9910218744016795
6.976788394197098,0.9954554498029249
6.990495247623811,0.9983115632614588
7.004202101050525,1.0037348830887984
7.017908954477238,1.0076033024034607
7.031615807903951,1.012398389102595
7.0453226613306645,1.0141521980916206
7.059029514757378,1.017007276581097
7.072736368184091,1.0203801542626494
7.086443221610804,1.02190985755714
7.100150075037518,1.0224962160862878
7.113856928464231,1.0221945168054631
7.127563781890945,1.0224856010810512
7.1412706353176585,1.0205158289475877
7.154977488744372,1.0193669576453648
7.168684342171085,1.0177903963193586
7.182391195597798,1.0129804647750202
7.196098049024512,1.0104796415454151
7.209804902451225,1.0074739018491052
7.223511755877938,1.0025560323809615
7.2372186093046516,0.998061334536114
7.250925462731365,0.9946334346486185
7.264632316158078,0.990505692867099
7.278339169584791,0.9868818866678365
7.292046023011505,0.9836272402275381
7.305752876438218,0.9812544275343553
7.319459729864932,0.9803685488338139
7.3331665832916455,0.978097353428932
7.346873436718359,0.9774470775180905
