time,flux
0.0,0.9727453042238775
0.013706853426713355,0.9726998681212166
0.02741370685342671,0.9749730027711784
0.041120560280140064,0.9795946151349907
0.05482741370685342,0.9846932647077239
0.06853426713356678,0.9925000941398524
0.08224112056028013,0.9983420985780583
0.09594797398699349,1.0073831657608607
0.10965482741370684,1.0152833042764695
0.1233616808404202,1.0212973064294684
0.13706853426713356,1.0294239554636193
0.1507753876938469,1.0347538948582848
0.16448224112056026,1.0402397873833837
0.1781890945472736,1.0438011392595719
0.19189594797398699,1.0462038233627569
0.20560280140070034,1.0451171804537704
0.21930965482741369,1.04226026742309
0.23301650825412704,1.0398902717348757
0.2467233616808404,1.0328632977476209
0.26043021510755376,1.025884484205997
0.2741370685342671,1.0175790588065412
0.28784392196098046,1.0069929181107853
0.3015507753876938,0.9968531935502196
0.31525762881440716,0.988013008800371
0.3289644822411205,0.978670205323943
0.34267133566783387,0.9699297846585789
0.3563781890945472,0.9616834528858412
0.3700850425212606,0.9552049709715826
0.38379189594797397,0.9520473010577581
0.3974987493746873,0.9501298135778637
0.41120560280140067,0.9513241197308392
0.424912456228114,0.9522049062566215
0.43861930965482737,0.9567918386004683
0.4523261630815407,0.9630655660949828
0.46603301650825407,0.972338017495241
0.4797398699349674,0.9806000028035278
0.4934467233616808,0.9900218581034209
0.5071535767883941,1.0002909157495714
0.5208604302151075,1.0097042953866695
0.5345672836418208,1.020031176257305
0.5482741370685342,1.0266954679316722
0.5619809904952475,1.035783037826431
0.5756878439219609,1.040257723386773
0.5893946973486743,1.042745201973646
0.6031015507753876,1.042301443194497
0.616808404202101,1.041654049131572
0.6305152576288143,1.0369739458783038
0.6442221110555277,1.0316395722305904
0.657928964482241,1.0233090319598497
0.6716358179089544,1.0146099858788546
0.6853426713356677,1.0043402784202056
0.6990495247623811,0.9942172661597071
0.7127563781890944,0.9833055581950068
0.7264632316158078,0.9741158004514927
0.7401700850425212,0.9653181120027508
0.7538769384692345,0.9586420943846815
0.7675837918959479,0.9530020377866538
0.7812906453226612,0.9514386216242021
0.7949974987493746,0.94980025035418
0.8087043521760879,0.9502584149873857
0.8224112056028013,0.9551745306601879
0.8361180590295146,0.9602877173038064
0.849824912456228,0.9688909181697738
0.8635317658829413,0.9789092672961217
0.8772386193096547,0.9906455526312004
0.8909454727363681,1.0026649358076338
0.9046523261630814,1.0141052199701135
0.9183591795897948,1.024016669910305
0.9320660330165081,1.0356210871703533
0.9457728864432215,1.0446476376575489
0.9594797398699348,1.0522156471356934
0.9731865932966483,1.0577445406252837
0.9868934467233615,1.0609687111499897
1.000600300150075,1.061656814407359
1.0143071535767882,1.0585731194791874
1.0280140070035018,1.055615536532468
1.041720860430215,1.0485588290136212
1.0554277138569284,1.0393366383401121
1.0691345672836416,1.027779249393005
1.0828414207103552,1.017570290259717
1.0965482741370685,1.0055231476789226
1.1102551275637818,0.9932879516214881
1.123961980990495,0.9816618393750189
1.1376688344172086,0.9706786937674615
1.1513756878439219,0.9630679774847889
1.1650825412706352,0.9557790844315587
1.1787893946973487,0.9505650724243853
1.192496248124062,0.9478697911824351
1.2062031015507753,0.9484951592394174
1.2199099549774886,0.9506176121681232
1.233616808404202,0.9543869142813913
1.2473236618309154,0.9614427116399956
1.2610305152576287,0.9695031893671746
1.274737368684342,0.9794312280050238
1.2884442221110555,0.9901337092269047
1.3021510755377688,1.0003954717842172
1.315857928964482,1.0111228891784407
1.3295647823911956,1.0217030340252893
1.3432716358179089,1.0298753425054978
1.3569784892446222,1.0365332700349543
1.3706853426713355,1.041492794631209
1.384392196098049,1.0444420335800826
1.3980990495247623,1.0447909179281218
1.4118059029514756,1.0429244012385386
1.4255127563781889,1.0378811646840371
1.4392196098049024,1.0325045403696358
1.4529264632316157,1.0234795015989848
1.466633316658329,1.0154275910471038
1.4803401700850425,1.0036725337241108
1.4940470235117558,0.9945119850908853
1.507753876938469,0.9833315324615227
1.5214607303651824,0.9739292010130042
1.5351675837918959,0.9652684650298846
1.5488744372186092,0.9574074139023019
1.5625812906453225,0.9524603195212575
1.5762881440720358,0.9488916581354142
1.5899949974987493,0.947034518206565
1.6037018509254626,0.9488220160330605
1.6174087043521759,0.9522572627598298
1.6311155577788894,0.9571644725903647
1.6448224112056027,0.9652229926928483
1.658529264632316,0.9744331910631345
1.6722361180590293,0.9821658422377633
1.6859429714857428,0.994286250062686
1.699649824912456,1.0054765666166674
1.7133566783391694,1.0145465108253036
1.7270635317658827,1.0244735913329848
1.7407703851925962,1.0332035188020974
1.7544772386193095,1.039571373861236
1.7681840920460228,1.0453586167794828
1.7818909454727363,1.0483070011788067
1.7955977988994496,1.050534546025341
1.8093046523261629,1.0485384853800326
1.8230115057528762,1.0456595005763858
1.8367183591795897,1.0410395535443984
1.850425212606303,1.033968909266824
1.8641320660330163,1.026642436065024
1.8778389194597296,1.0176166507858286
1.891545772886443,1.0097112249168732
1.9052526263131564,1.0007188844624977
1.9189594797398697,0.9919826479278501
1.9326663331665832,0.9855377308863627
1.9463731865932965,0.9785047562103687
1.9600800400200098,0.9731801139544751
1.973786893446723,0.9702594319990037
1.9874937468734366,0.9679360296065859
2.00120060030015,0.9684088683531645
2.014907453726863,0.9688894617726518
2.0286143071535765,0.9724141349823735
2.04232116058029,0.9775456167285835
2.0560280140070035,0.9831313194324128
2.069734867433717,0.989729520713815
2.08344172086043,0.9962887059491162
2.0971485742871434,1.0035017363609706
2.1108554277138567,1.0097599849294534
2.12456228114057,1.0147250200583313
2.1382691345672833,1.02056601914676
2.1519759879939966,1.0242654017945492
2.1656828414207103,1.0273339185247254
2.1793896948474236,1.0276364671146698
2.193096548274137,1.0276405381166236
2.20680340170085,1.0268685313662267
2.2205102551275635,1.0232996256890043
2.234217108554277,1.0185939544940665
2.24792396198099,1.0125085454854192
2.261630815407704,1.0073058099385768
2.275337668834417,1.0013710531039952
2.2890445222611304,0.9943751190706535
2.3027513756878437,0.9884120045331088
2.316458229114557,0.9810642985877398
2.3301650825412703,0.9776483160112935
2.3438719359679836,0.9727184073271364
2.3575787893946973,0.9707159810304388
2.3712856428214106,0.9696612934553782
2.384992496248124,0.9692728821580797
2.3986993496748372,0.9707942817983757
2.4124062031015505,0.9717129410959411
2.426113056528264,0.9752239488556751
2.439819909954977,0.9791310713141941
2.4535267633816904,0.9828337518032313
2.467233616808404,0.9880946717732666
2.4809404702351174,0.9920166252351763
2.4946473236618307,0.9984748421868928
2.508354177088544,1.0023928548860008
2.5220610305152573,1.006462754278553
2.5357678839419706,1.0098990622258983
2.549474737368684,1.0127696993478157
2.5631815907953976,1.0140970764033472
2.576888444222111,1.0162953071791
2.5905952976488242,1.0168003959131204
2.6043021510755375,1.0156756913773108
2.618009004502251,1.0158210237228897
2.631715857928964,1.0122975815642987
2.6454227113556774,1.0099369213152374
2.659129564782391,1.008226199866097
2.6728364182091044,1.0059213252173325
2.6865432716358177,1.0033730421641849
2.700250125062531,1.0021409677335242
2.7139569784892443,1.0011600343892442
2.7276638319159576,1.0002868778655876
2.741370685342671,0.9991312990654014
2.755077538769384,0.9985474470626613
2.768784392196098,1.0000252895917854
2.7824912456228112,1.0004312043969796
2.7961980990495245,1.001327423550933
2.809904952476238,1.0017002685746461
2.823611805902951,1.0044887906608022
2.8373186593296644,1.0047160845934073
2.8510255127563777,1.006895837407688
2.8647323661830915,1.0085034412227531
2.8784392196098048,1.0089455679421493
2.892146073036518,1.0101186933492408
2.9058529264632313,1.0095256600978915
2.9195597798899446,1.0085175527916497
2.933266633316658,1.0071003235392988
2.9469734867433712,1.0058259815668815
2.960680340170085,1.003886432963247
2.9743871935967983,1.0010627818815057
2.9880940470235116,0.9997594341411752
3.001800900450225,0.9981027738793742
3.015507753876938,0.9963910113131944
3.0292146073036514,0.9936545783588102
3.0429214607303647,0.9929144186214868
3.056628314157078,0.9914329899568687
3.0703351675837918,0.991473422617341
3.084042021010505,0.9920661423027581
3.0977488744372184,0.9905545904713663
3.1114557278639317,0.9927355910964337
3.125162581290645,0.9942965492080806
3.1388694347173582,0.9962400795427601
3.1525762881440715,0.9982679563061695
3.1662831415707853,1.000517840826824
3.1799899949974986,1.001909148136876
3.193696848424212,1.0044857954335389
3.207403701850925,1.0055485360857979
3.2211105552776385,1.0064894310657708
3.2348174087043517,1.0066294871972885
3.248524262131065,1.0060531382471913
3.262231115557779,1.0050034562238614
3.275937968984492,1.003140072130259
3.2896448224112054,0.9991778115608845
3.3033516758379187,0.9961602238321274
3.317058529264632,0.9932075041706349
3.3307653826913453,0.9890045773337977
3.3444722361180586,0.9850128112596801
3.358179089544772,0.9818681435616823
3.3718859429714856,0.9796435750582182
3.385592796398199,0.9773535049726205
3.399299649824912,0.9757234053660888
3.4130065032516255,0.9745281905633908
3.4267133566783388,0.9751213300599526
3.440420210105052,0.9766692821541297
3.4541270635317654,0.9796847186462052
3.467833916958479,0.9839532464632079
3.4815407703851924,0.9877859427327951
3.4952476238119057,0.9944759542216834
3.508954477238619,1.000586986060886
3.5226613306653323,1.0066586466792686
3.5363681840920456,1.0132256111962412
3.550075037518759,1.018753858100721
3.5637818909454726,1.0244035215425917
3.577488744372186,1.0304581287617736
3.591195597798899,1.0327899022917806
3.6049024512256125,1.0350876026048499
3.6186093046523258,1.0360692107019598
3.632316158079039,1.0350889503114689
3.6460230115057524,1.0334565886545326
3.659729864932466,1.0302682922639823
3.6734367183591794,1.0250380442858393
3.6871435717858927,1.0186309751826572
3.700850425212606,1.012239892573148
3.7145572786393193,1.003714410620559
3.7282641320660326,0.997255456619244
3.741970985492746,0.9894731510230953
3.755677838919459,0.9841928719375906
3.769384692346173,0.9779158702166819
3.783091545772886,0.9737948734468831
3.7967983991995995,0.9704196896467956
3.810505252626313,0.9683924016770169
3.824212106053026,0.9684640622332161
3.8379189594797394,0.9697598238825619
3.8516258129064527,0.9746204823741436
3.8653326663331664,0.9794797059552355
3.8790395197598797,0.983996439101937
3.892746373186593,0.990831090845206
3.9064532266133063,1.0001557784127264
3.9201600800400196,1.0078426036490549
3.933866933466733,1.0156230938876374
3.947573786893446,1.0214414809486272
3.96128064032016,1.0295192188544675
3.974987493746873,1.0336872501781613
3.9886943471735865,1.0373591162926248
4.0024012006003,1.038257562631041
4.016108054027013,1.0377823312602583
4.029814907453726,1.0359250243439058
4.04352176088044,1.0315194510173715
4.057228614307153,1.0261517126464146
4.070935467733866,1.0190103693607715
4.08464232116058,1.010370299291185
4.098349174587293,1.0004021207076748
4.112056028014007,0.9907671523290326
4.12576288144072,0.9794607130042141
4.139469734867434,0.9693741242907329
4.153176588294147,0.963217307099273
4.16688344172086,0.9545947779236437
4.1805902951475735,0.9504185283970359
4.194297148574287,0.9462095391447467
4.208004002001,0.9441954510423866
4.221710855427713,0.9468747564476204
4.235417708854427,0.9500786012067476
4.24912456228114,0.9554022490513397
4.262831415707853,0.9627217165895683
4.276538269134567,0.9721402675464592
4.29024512256128,0.980601162078399
4.303951975987993,0.9938415829730881
4.317658829414707,1.0054915318730133
4.331365682841421,1.0151650421715859
4.345072536268134,1.0251843155816818
4.358779389694847,1.03441218343078
4.3724862431215605,1.0429116041124638
4.386193096548274,1.04879553485028
4.399899949974987,1.0512945658853816
4.4136068034017,1.051786167859881
4.427313656828414,1.0506484307331214
4.441020510255127,1.0473986817254295
4.45472736368184,1.042299836422393
4.468434217108554,1.0331281573491096
4.482141070535267,1.0240005379692412
4.49584792396198,1.0145998984423013
4.5095547773886935,1.004881374506827
4.523261630815408,0.9941724225918286
4.536968484242121,0.983542772450788
4.550675337668834,0.9747549312776078
4.5643821910955475,0.967002335909588
4.578089044522261,0.9607282004196833
4.591795897948974,0.9564858947160465
4.605502751375687,0.9548387657112545
4.619209604802401,0.9554639433244824
4.632916458229114,0.9583638262502341
4.646623311655827,0.9632637997229195
4.660330165082541,0.9713161203999549
4.674037018509254,0.980302188093359
4.687743871935967,0.9896421881274484
4.7014507253626805,1.0006465664354527
4.715157578789395,1.0122406127936467
4.728864432216108,1.0221205930517703
4.742571285642821,1.0317297565219838
4.756278139069535,1.041969695485853
4.769984992496248,1.0480022442311372
4.783691845922961,1.0520876821339173
4.7973986993496744,1.0548135300650678
4.811105552776388,1.0550443824341276
4.824812406203101,1.052437500552957
4.838519259629814,1.047126759585452
4.852226113056528,1.0403440405324134
4.865932966483241,1.0305652710808149
4.879639819909954,1.0206435857445775
4.8933466733366675,1.0089237501975499
4.907053526763381,0.997540470995905
4.920760380190095,0.9851241621153105
4.934467233616808,0.973955243623252
4.948174087043522,0.9618153598898931
4.961880940470235,0.9540854092730365
4.975587793896948,0.9468059595277077
4.9892946473236615,0.9427607808802957
5.003001500750375,0.9396771037168207
5.016708354177088,0.9406061789406631
5.030415207603801,0.9433571958254955
5.044122061030515,0.9481600067708654
5.057828914457228,0.954305901238487
5.071535767883941,0.965642226067614
5.0852426213106545,0.9740923499596983
5.098949474737368,0.985275178884568
5.112656328164081,0.9971693579204087
5.126363181590795,1.0083277864562514
5.140070035017509,1.019262196464449
5.153776888444222,1.0284609428104579
5.167483741870935,1.035743931937733
5.1811905952976485,1.0412001590081614
5.194897448724362,1.0457124955383124
5.208604302151075,1.046780125663141
5.222311155577788,1.0440225819717652
5.236018009004502,1.0429129002260233
5.249724862431215,1.0370467067167588
5.263431715857928,1.0296560800402073
5.2771385692846415,1.0213870400370246
5.290845422711355,1.0119646043881902
5.304552276138068,1.0033224186679113
5.318259129564782,0.9936300529078708
5.331965982991496,0.9840943820404154
5.345672836418209,0.9711760506435719
5.359379689844922,0.9686322929688758
5.3730865432716355,0.9643234044974797
5.386793396698349,0.9595762424828365
5.400500250125062,0.9596053098503844
5.414207103551775,0.959280764328608
5.427913956978489,0.9616788461072034
5.441620810405202,0.9673583435800198
5.455327663831915,0.9759931698014177
5.4690345172586285,0.9817682929048824
5.482741370685342,0.9909533455019809
5.496448224112055,1.0010626812074215
5.510155077538768,1.0107879354950629
5.523861930965483,1.0196785815434508
5.537568784392196,1.0281636762728814
5.551275637818909,1.0348744556211427
5.5649824912456225,1.0404060991038124
5.578689344672336,1.0459488214429475
5.592396198099049,1.047426829038329
5.606103051525762,1.0481876806879495
5.619809904952476,1.0464058467407407
5.633516758379189,1.0417266973734698
5.647223611805902,1.0359743143374605
5.660930465232616,1.0299217042101159
5.674637318659329,1.0225697833201948
5.688344172086042,1.0151380736600675
5.7020510255127554,1.0045411161936395
5.71575787893947,0.9960652033937087
5.729464732366183,0.9881817299512692
5.743171585792896,0.9793374301209379
5.7568784392196095,0.9721816906455532
5.770585292646323,0.9678956548421489
5.784292146073036,0.963843680674789
5.797998999499749,0.9617000892056367
5.811705852926463,0.9610731872454608
5.825412706353176,0.9634445801767415
5.839119559779889,0.965685424067729
5.852826413206603,0.9693390591002706
5.866533266633316,0.9745212554289269
5.880240120060029,0.9806381434005466
5.8939469734867425,0.9877880248663038
5.907653826913456,0.9951510462658177
5.92136068034017,1.0005952076297961
5.935067533766883,1.007378410608607
5.9487743871935965,1.0120320189091958
5.96248124062031,1.0162496865882003
5.976188094047023,1.018393455591388
5.989894947473736,1.0199984453920519
6.00360180090045,1.024119391048883
6.017308654327163,1.0202676533746442
6.031015507753876,1.017798195230757
6.04472236118059,1.015706982501542
6.058429214607303,1.0113656312673187
6.072136068034016,1.0067757448482801
6.0858429214607295,1.0028932204681134
6.099549774887443,0.9957025645510353
6.113256628314156,0.9927838962402258
6.12696348174087,0.9874121758947371
6.1406703351675835,0.9839842888501453
6.154377188594297,0.9823791505753546
6.16808404202101,0.9795145254098301
6.181790895447723,0.9807049593415063
6.195497748874437,0.980382497150158
6.20920460230115,0.9813905978745976
6.222911455727863,0.9839237508753812
6.236618309154577,0.9874143910928603
6.25032516258129,0.9906777436297414
6.264032016008003,0.9949634008443854
6.2777388694347165,0.9983558876437933
6.29144572286143,1.0018476401116394
6.305152576288143,1.0072733600817416
6.318859429714857,1.0101696381116403
6.3325662831415706,1.0150530417611974
6.346273136568284,1.0161766711001956
6.359979989994997,1.0186395250357385
6.37368684342171,1.0198494716300963
6.387393696848424,1.0195109682373245
6.401100550275137,1.0195906464614874
6.41480740370185,1.0184486611060062
6.428514257128564,1.0163332856125273
6.442221110555277,1.0150442618323858
6.45592796398199,1.0115871403342778
6.4696348174087035,1.0093952801701866
6.483341670835417,1.0068467198811217
6.49704852426213,1.0046246818808997
6.510755377688843,1.0032547625497614
6.524462231115558,1.0009179569186644
6.538169084542271,0.9990363650757045
6.551875937968984,0.999123587527852
6.5655827913956974,0.998826466366792
6.579289644822411,0.998441429691702
6.592996498249124,0.9990148474863015
6.606703351675837,0.9992917302404191
6.620410205102551,1.0001630924835199
6.634117058529264,1.0006403357487903
6.647823911955977,1.0014022463497199
6.6615307653826905,1.0014104596448374
6.675237618809404,1.0020407082619516
6.688944472236117,1.002050772185227
6.70265132566283,1.0001243204535208
6.716358179089544,0.9999691997075849
6.730065032516258,0.9981496537952348
6.743771885942971,0.9960634232505371
6.7574787393696845,0.9942292523874724
6.771185592796398,0.9915196714917038
6.784892446223111,0.9898970287954055
6.798599299649824,0.988472782173469
6.812306153076538,0.9865545415963245
6.826013006503251,0.9843273265378959
6.839719859929964,0.9839292538960416
6.8534267133566775,0.9829975034130657
6.867133566783391,0.9838467762860876
6.880840420210104,0.9849992818649422
6.894547273636817,0.9854022880608746
6.908254127063531,0.9879081218687704
6.921960980490245,0.9910373760241626
6.935667833916958,0.9936525971781662
6.9493746873436715,0.996875346467443
6.963081540770385,1.001880663308173
6.976788394197098,1.0051053375539802
6.990495247623811,1.0089005521353198
7.004202101050525,1.010893356041077
7.017908954477238,1.0128889487877928
7.031615807903951,1.0125249164263896
7.0453226613306645,1.0149770146212995
7.059029514757378,1.0137547995321285
7.072736368184091,1.0127954440918518
7.086443221610804,1.0113513485694794
7.100150075037518,1.0084515662186602
7.113856928464231,1.0055367915351168
7.127563781890945,1.0013916999619938
7.1412706353176585,0.9968118278323124
7.154977488744372,0.9929749748907689
7.168684342171085,0.9885448555256691
7.182391195597798,0.9867702868955441
7.196098049024512,0.9841735867655161
7.209804902451225,0.9816132177891368
7.223511755877938,0.9812539855649027
7.2372186093046516,0.9808094609051572
7.250925462731365,0.9828494558015762
7.264632316158078,0.9854896648001791
7.278339169584791,0.9902076305879036
7.292046023011505,0.9948764619851085
7.305752876438218,0.9996785498852933
7.319459729864932,1.0074153313376146
7.3331665832916455,1.0122646329635157
7.346873436718359,1.0188397269257534
