time,flux
0.0,0.9959437194653896
0.013706853426713355,1.0022420590555057
0.02741370685342671,1.0074690428728845
0.041120560280140064,1.0120831446474718
0.05482741370685342,1.015467124072206
0.06853426713356678,1.0206875877616024
0.08224112056028013,1.0220023805408462
0.09594797398699349,1.0224000897596948
0.10965482741370684,1.022884032036481
0.1233616808404202,1.0202970817446813
0.13706853426713356,1.0173163905485212
0.1507753876938469,1.0134361829500853
0.16448224112056026,1.010231398287252
0.1781890945472736,1.0063591800892149
0.19189594797398699,1.0034361480672502
0.20560280140070034,0.9997479740318234
0.21930965482741369,0.9959854056798998
0.23301650825412704,0.9945240652689811
0.2467233616808404,0.9955088944979893
0.26043021510755376,0.9961125805185262
0.2741370685342671,1.0008729033769772
0.28784392196098046,1.0030455691566453
0.3015507753876938,1.0096753174260864
0.31525762881440716,1.0160369087319994
0.3289644822411205,1.0241336404688057
0.34267133566783387,1.0319843834600688
0.3563781890945472,1.038135205202406
0.3700850425212606,1.0464950708438305
0.38379189594797397,1.0507112028849652
0.3974987493746873,1.0573918845373462
0.41120560280140067,1.059194064111537
0.424912456228114,1.0615643842817484
0.43861930965482737,1.058854712611787
0.4523261630815407,1.056967529676208
0.46603301650825407,1.0531912412422708
0.4797398699349674,1.0463348507296664
0.4934467233616808,1.0395106667949632
0.5071535767883941,1.0315321544369445
0.5208604302151075,1.023450180382797
0.5345672836418208,1.0136185489664626
0.5482741370685342,1.0049434154883743
0.5619809904952475,0.9968694831197401
0.5756878439219609,0.989839847929114
0.5893946973486743,0.9843603205250847
0.6031015507753876,0.980891662927783
0.616808404202101,0.9777946609595852
0.6305152576288143,0.9776289296207971
0.6442221110555277,0.9777735300990806
0.657928964482241,0.9811247545725625
0.6716358179089544,0.9840187177886756
0.6853426713356677,0.9896656643346738
0.6990495247623811,0.9949098302207138
0.7127563781890944,0.9985216133600561
0.7264632316158078,1.00459625604824
0.7401700850425212,1.0094447540313973
0.7538769384692345,1.0131309613173054
0.7675837918959479,1.017037281779625
0.7812906453226612,1.0196439165787183
0.7949974987493746,1.0166604267730361
0.8087043521760879,1.0155919584874447
0.8224112056028013,1.0142800218615442
0.8361180590295146,1.010647315837878
0.849824912456228,1.0067849183890216
0.8635317658829413,1.0015430630400033
0.8772386193096547,0.9975657538729586
0.8909454727363681,0.9947108123786188
0.9046523261630814,0.9904738555331809
0.9183591795897948,0.9879997630240419
0.9320660330165081,0.9854174214772166
0.9457728864432215,0.9866350011369861
0.9594797398699348,0.9889501355018562
0.9731865932966483,0.9935934134397456
0.9868934467233615,0.9982063827756416
1.000600300150075,1.003731785919226
1.0143071535767882,1.0117016465327509
1.0280140070035018,1.018943747260342
1.041720860430215,1.0267391669087391
1.0554277138569284,1.0337918972524793
1.0691345672836416,1.0415265263753115
1.0828414207103552,1.0444968772115295
1.0965482741370685,1.047178134050116
1.1102551275637818,1.0491256488734582
1.123961980990495,1.0511446674871054
1.1376688344172086,1.050239034261206
1.1513756878439219,1.0465400923220025
1.1650825412706352,1.0408130139496772
1.1787893946973487,1.0344554190503334
1.192496248124062,1.0268824668327574
1.2062031015507753,1.0173965614090175
1.2199099549774886,1.0087264508121798
1.233616808404202,0.9990681122875499
1.2473236618309154,0.9912981862012828
1.2610305152576287,0.9833462864859134
1.274737368684342,0.976019895457677
1.2884442221110555,0.9711731888623543
1.3021510755377688,0.9671280869205713
1.315857928964482,0.9670717048381723
1.3295647823911956,0.9669982944725765
1.3432716358179089,0.9672361680583847
1.3569784892446222,0.9707620399788839
1.3706853426713355,0.9762724383260812
1.384392196098049,0.9799652240568419
1.3980990495247623,0.985736249260039
1.4118059029514756,0.9898476352128035
1.4255127563781889,0.9968267983011546
1.4392196098049024,0.998207098675135
1.4529264632316157,1.002289886716365
1.466633316658329,1.0056804141090239
1.4803401700850425,1.0046159057730488
1.4940470235117558,1.0046452535038461
1.507753876938469,1.002669353233536
1.5214607303651824,0.9986773005999428
1.5351675837918959,0.9953239085195397
1.5488744372186092,0.9917049881228448
1.5625812906453225,0.9877073278237514
1.5762881440720358,0.9831771068930006
1.5899949974987493,0.9795535140819057
1.6037018509254626,0.9758392116700596
1.6174087043521759,0.9754292059911032
1.6311155577788894,0.9750735243356499
1.6448224112056027,0.9764979303958192
1.658529264632316,0.978447308011283
1.6722361180590293,0.9820846690292606
1.6859429714857428,0.9877628934464912
1.699649824912456,0.9949082050465557
1.7133566783391694,1.0003987677934543
1.7270635317658827,1.0090699341215212
1.7407703851925962,1.016025976913909
1.7544772386193095,1.0227075529296359
1.7681840920460228,1.0272945190354261
1.7818909454727363,1.032193433031462
1.7955977988994496,1.0357210324991954
1.8093046523261629,1.0373843982469815
1.8230115057528762,1.0383413640220795
1.8367183591795897,1.0355762975252527
1.850425212606303,1.031095343221893
1.8641320660330163,1.0257010736971168
1.8778389194597296,1.017963758145362
1.891545772886443,1.0099557688970466
1.9052526263131564,1.0020333285983765
1.9189594797398697,0.9928181889099055
1.9326663331665832,0.983794010443131
1.9463731865932965,0.975686857440368
1.9600800400200098,0.9693383255476793
1.973786893446723,0.9623899382677514
1.9874937468734366,0.9592819462649814
2.00120060030015,0.953951823825616
2.014907453726863,0.9533001362394992
2.0286143071535765,0.9536381073496631
2.04232116058029,0.9579834283071976
2.0560280140070035,0.9604801220661593
2.069734867433717,0.9645984748612856
2.08344172086043,0.9704719937599079
2.0971485742871434,0.9761284958389328
2.1108554277138567,0.9811279601304278
2.12456228114057,0.9856693670106035
2.1382691345672833,0.9894643631819855
2.1519759879939966,0.9929394407266537
2.1656828414207103,0.9931679304169252
2.1793896948474236,0.9941110770948506
2.193096548274137,0.9925067950520092
2.20680340170085,0.9897661516459415
2.2205102551275635,0.9873451861022826
2.234217108554277,0.9834324119602393
2.24792396198099,0.9801208335940856
2.261630815407704,0.9740395798776857
2.275337668834417,0.9710721241274864
2.2890445222611304,0.968087535091781
2.3027513756878437,0.9652606221438041
2.316458229114557,0.9645157557797056
2.3301650825412703,0.9638601154423523
2.3438719359679836,0.9671840758218323
2.3575787893946973,0.9684581265872324
2.3712856428214106,0.9740602658070437
2.384992496248124,0.9802665418575983
2.3986993496748372,0.9873197333297338
2.4124062031015505,0.9956853161381073
2.426113056528264,1.0029858333510935
2.439819909954977,1.0115913997009371
2.4535267633816904,1.0170011518326256
2.467233616808404,1.022174682464156
2.4809404702351174,1.0277885016807056
2.4946473236618307,1.0303065337846162
2.508354177088544,1.0314013896366532
2.5220610305152573,1.0289285356032185
2.5357678839419706,1.027673988062472
2.549474737368684,1.0239052858431168
2.5631815907953976,1.015949641670278
2.576888444222111,1.0084539084541346
2.5905952976488242,1.001152034374354
2.6043021510755375,0.990209300786213
2.618009004502251,0.9833050918241294
2.631715857928964,0.973482002363555
2.6454227113556774,0.9651101229271203
2.659129564782391,0.9603121597613914
2.6728364182091044,0.9539969286773112
2.6865432716358177,0.9506076558588045
2.700250125062531,0.9496658042186853
2.7139569784892443,0.9495608522883163
2.7276638319159576,0.9503558021476525
2.741370685342671,0.95336069908609
2.755077538769384,0.9586570688565081
2.768784392196098,0.9639961743182713
2.7824912456228112,0.9704223732061855
2.7961980990495245,0.9760082185619706
2.809904952476238,0.9802503420198159
2.823611805902951,0.9831276768689932
2.8373186593296644,0.9880166695144698
2.8510255127563777,0.9898082963823295
2.8647323661830915,0.9913455082902924
2.8784392196098048,0.9918037826684581
2.892146073036518,0.9895345056979193
2.9058529264632313,0.9868481788279198
2.9195597798899446,0.9838778503909773
2.933266633316658,0.9806524603276928
2.9469734867433712,0.9758502489544449
2.960680340170085,0.9712488863201718
2.9743871935967983,0.9687975519124447
2.9880940470235116,0.9646706202533002
3.001800900450225,0.9636625892052867
3.015507753876938,0.9630488962740694
3.0292146073036514,0.9658214656916696
3.0429214607303647,0.9675688858048203
3.056628314157078,0.9717468522435531
3.0703351675837918,0.9785479722637154
3.084042021010505,0.9836903362723194
3.0977488744372184,0.9922238665048845
3.1114557278639317,1.0009100198639829
3.125162581290645,1.0084684876794685
3.1388694347173582,1.0168436615090823
3.1525762881440715,1.0216042973726023
3.1662831415707853,1.0273675166119536
3.1799899949974986,1.0309744488498045
3.193696848424212,1.033645387585708
3.207403701850925,1.0328992077517019
3.2211105552776385,1.032985070982447
3.2348174087043517,1.0283826266008815
3.248524262131065,1.0231364238279426
3.262231115557779,1.0173069058443134
3.275937968984492,1.0101630584082617
3.2896448224112054,1.000222800005745
3.3033516758379187,0.9926365599946749
3.317058529264632,0.9843816779807422
3.3307653826913453,0.9815175362363229
3.3444722361180586,0.9690167368023977
3.358179089544772,0.9644451109274744
3.3718859429714856,0.9597931543749887
3.385592796398199,0.9574612748269774
3.399299649824912,0.9564022799061476
3.4130065032516255,0.9569284273705977
3.4267133566783388,0.960983205343057
3.440420210105052,0.9640363587538648
3.4541270635317654,0.9669541922806882
3.467833916958479,0.972632270512891
3.4815407703851924,0.9771386837123565
3.4952476238119057,0.9832171028108523
3.508954477238619,0.9883272842826474
3.5226613306653323,0.9920632071545638
3.5363681840920456,0.9953082351503879
3.550075037518759,0.9986584281012887
3.5637818909454726,0.9978609899119438
3.577488744372186,0.9976173753660289
3.591195597798899,0.9956652917427321
3.6049024512256125,0.9957659365312888
3.6186093046523258,0.9915607269025762
3.632316158079039,0.9861812896200742
3.6460230115057524,0.9830425784383384
3.659729864932466,0.9788210073022178
3.6734367183591794,0.9757622275108861
3.6871435717858927,0.9745987459698532
3.700850425212606,0.9737537984273862
3.7145572786393193,0.9743816360708256
3.7282641320660326,0.9767739114942652
3.741970985492746,0.9782731249523565
3.755677838919459,0.9845229151424264
3.769384692346173,0.9912701476010665
3.783091545772886,0.9978288031024594
3.7967983991995995,1.006278563389791
3.810505252626313,1.0126704518328133
3.824212106053026,1.0220511617370232
3.8379189594797394,1.0302881152411638
3.8516258129064527,1.035805501703898
3.8653326663331664,1.0396189629198138
3.8790395197598797,1.0445406326940838
3.892746373186593,1.0442594078696492
3.9064532266133063,1.046232886926855
3.9201600800400196,1.042718225841505
3.933866933466733,1.04012955712572
3.947573786893446,1.032735421067896
3.96128064032016,1.0279048243830002
3.974987493746873,1.0191802003494952
3.9886943471735865,1.009894424103461
4.0024012006003,1.0022386445750513
4.016108054027013,0.9940883910645358
4.029814907453726,0.9852102403151091
4.04352176088044,0.9786497010937735
4.057228614307153,0.9753782497935656
4.070935467733866,0.9704624984009774
4.08464232116058,0.9691926000561348
4.098349174587293,0.9682622350547125
4.112056028014007,0.9702302714180487
4.12576288144072,0.9730394823069936
4.139469734867434,0.9774024808812243
4.153176588294147,0.9829953292294118
4.16688344172086,0.9864024933418442
4.1805902951475735,0.9943716110894617
4.194297148574287,0.9983316673064114
4.208004002001,1.0037344258145613
4.221710855427713,1.0081861908275427
4.235417708854427,1.010171554564464
4.24912456228114,1.0125692984512669
4.262831415707853,1.0120877732345819
4.276538269134567,1.009925230915581
4.29024512256128,1.0074986683299514
4.303951975987993,1.0048921588730488
4.317658829414707,1.0027656936949234
4.331365682841421,0.9965521018153576
4.345072536268134,0.9930974538021504
4.358779389694847,0.9897310041724783
4.3724862431215605,0.9868866401822101
4.386193096548274,0.9865285464733919
4.399899949974987,0.9857794176546949
4.4136068034017,0.9872050744648644
4.427313656828414,0.9909122706528927
4.441020510255127,0.9941911592275541
4.45472736368184,0.9988782592395608
4.468434217108554,1.0059224514925336
4.482141070535267,1.0129766037462622
4.49584792396198,1.020567771278773
4.5095547773886935,1.0286847740248632
4.523261630815408,1.037117260958374
4.536968484242121,1.0449197527476775
4.550675337668834,1.0503495146419746
4.5643821910955475,1.0544758916748749
4.578089044522261,1.0563069880490288
4.591795897948974,1.0565888307764228
4.605502751375687,1.0566438571076608
4.619209604802401,1.0532569505992857
4.632916458229114,1.0496002557703372
4.646623311655827,1.0436653655646413
4.660330165082541,1.034658268137418
4.674037018509254,1.0260238146002583
4.687743871935967,1.018150576787971
4.7014507253626805,1.0094922236422819
4.715157578789395,1.0007253613496572
4.728864432216108,0.9949730905714099
4.742571285642821,0.987557158704358
4.756278139069535,0.9831755286235209
4.769984992496248,0.9823349001790777
4.783691845922961,0.9803261457669493
4.7973986993496744,0.9785791410564781
4.811105552776388,0.9815516119053164
4.824812406203101,0.9862761983746577
4.838519259629814,0.9903321563678774
4.852226113056528,0.9947615667397068
4.865932966483241,0.9998893122584768
4.879639819909954,1.005046470914742
4.8933466733366675,1.0106612420190195
4.907053526763381,1.0157816407322673
4.920760380190095,1.019022046320287
4.934467233616808,1.0195649209416247
4.948174087043522,1.0216219817361867
4.961880940470235,1.020544760307434
4.975587793896948,1.019140094740268
4.9892946473236615,1.0157631975512225
5.003001500750375,1.0112066162863889
5.016708354177088,1.0073853886828088
5.030415207603801,1.0021136295489004
5.044122061030515,0.9999419083611141
5.057828914457228,0.9960438985543735
5.071535767883941,0.9932210632182089
5.0852426213106545,0.9924135979630816
5.098949474737368,0.9936727152845629
5.112656328164081,0.9934587469248992
5.126363181590795,0.998546142061545
5.140070035017509,1.0025304147556862
5.153776888444222,1.0101937161531793
5.167483741870935,1.0150141365272662
5.1811905952976485,1.021311064865808
5.194897448724362,1.0302818451685198
5.208604302151075,1.038331973649012
5.222311155577788,1.0460589088151386
5.236018009004502,1.0530036678898875
5.249724862431215,1.0570373537848254
5.263431715857928,1.0592212796616203
5.2771385692846415,1.0631635318583126
5.290845422711355,1.0619644261630434
5.304552276138068,1.0598389014393677
5.318259129564782,1.057231385142849
5.331965982991496,1.0489816421082725
5.345672836418209,1.0440336823960112
5.359379689844922,1.035633170616549
5.3730865432716355,1.0262511643194117
5.386793396698349,1.0178306064991485
5.400500250125062,1.0098900736251908
5.414207103551775,1.002628635365086
5.427913956978489,0.9946712111734403
5.441620810405202,0.9896141780097196
5.455327663831915,0.9846513702151952
5.4690345172586285,0.9828586055024217
5.482741370685342,0.9839285040722299
5.496448224112055,0.9825470031588488
5.510155077538768,0.9855083641840886
5.523861930965483,0.9894991235485089
5.537568784392196,0.9931626987376435
5.551275637818909,0.9975097899533106
5.5649824912456225,1.0015325317183577
5.578689344672336,1.0062307287608199
5.592396198099049,1.0120069537933882
5.606103051525762,1.0168529723097282
5.619809904952476,1.0194170288587487
5.633516758379189,1.0200694377794521
5.647223611805902,1.0190857201867562
5.660930465232616,1.0185305847142032
5.674637318659329,1.0161064565751297
5.688344172086042,1.0127816811037809
5.7020510255127554,1.0083129735964187
5.71575787893947,1.0030350022033712
5.729464732366183,0.999145309005964
5.743171585792896,0.9942374870877431
5.7568784392196095,0.9919523233550117
5.770585292646323,0.9894435426809722
5.784292146073036,0.9892409743385545
5.797998999499749,0.9891107516042256
5.811705852926463,0.9905040103167149
5.825412706353176,0.995951491149415
5.839119559779889,1.0004015150030876
5.852826413206603,1.005595788555853
5.866533266633316,1.0128035550524146
5.880240120060029,1.021601130418717
5.8939469734867425,1.029001047935763
5.907653826913456,1.0371432331597283
5.92136068034017,1.0425909167536924
5.935067533766883,1.049101046987888
5.9487743871935965,1.0551409179320186
5.96248124062031,1.0565606038692938
5.976188094047023,1.0569538378973429
5.989894947473736,1.0547251923348517
6.00360180090045,1.0523340965718924
6.017308654327163,1.0467048315278689
6.031015507753876,1.0407410627591973
6.04472236118059,1.0330503033665237
6.058429214607303,1.0238383354389486
6.072136068034016,1.0151100995144202
6.0858429214607295,1.0057110159232523
6.099549774887443,0.9973182351861871
6.113256628314156,0.9900006284614133
6.12696348174087,0.9845216433687907
6.1406703351675835,0.9787140911661759
6.154377188594297,0.9745080264658718
6.16808404202101,0.9741594261313115
6.181790895447723,0.973735903834972
6.195497748874437,0.9741434770731642
6.20920460230115,0.9781422872948605
6.222911455727863,0.9813021380080583
6.236618309154577,0.9875216165244446
6.25032516258129,0.9901812828755787
6.264032016008003,0.9978179841549113
6.2777388694347165,1.0009664998300094
6.29144572286143,1.0043791669336328
6.305152576288143,1.0066567741225025
6.318859429714857,1.0099611853014792
6.3325662831415706,1.0093664269602898
6.346273136568284,1.0085153267375055
6.359979989994997,1.0064436476415406
6.37368684342171,1.0036465865149924
6.387393696848424,0.9980010861026043
6.401100550275137,0.9942467643395843
6.41480740370185,0.990230474938446
6.428514257128564,0.98493791215293
6.442221110555277,0.9829239454903586
6.45592796398199,0.9792821207177544
6.4696348174087035,0.9772620991707215
6.483341670835417,0.9773938260110805
6.49704852426213,0.9791981593927884
6.510755377688843,0.9830098195652196
6.524462231115558,0.9864419735210743
6.538169084542271,0.9905702045603378
6.551875937968984,0.9971693990415943
6.5655827913956974,1.0036668883450974
6.579289644822411,1.0121338164705531
6.592996498249124,1.0202159259576324
6.606703351675837,1.026040898331322
6.620410205102551,1.0336819231651875
6.634117058529264,1.038344239478825
6.647823911955977,1.0427693585830415
6.6615307653826905,1.0438630313313524
6.675237618809404,1.0449883580747503
6.688944472236117,1.0416669990304483
6.70265132566283,1.0381989336370365
6.716358179089544,1.0321349847303776
6.730065032516258,1.0265046437029288
6.743771885942971,1.0172128906067277
6.7574787393696845,1.0091823617085178
6.771185592796398,0.9979296504367804
6.784892446223111,0.9908798105922146
6.798599299649824,0.9832789259414062
6.812306153076538,0.9736117538245059
6.826013006503251,0.9684438587469791
6.839719859929964,0.9647187026622358
6.8534267133566775,0.9616066815108669
6.867133566783391,0.9632687173442288
6.880840420210104,0.9612422619689496
6.894547273636817,0.96339602369547
6.908254127063531,0.9667823431355741
6.921960980490245,0.9694475628767505
6.935667833916958,0.9760343917502015
6.9493746873436715,0.9810006460438216
6.963081540770385,0.9850551362941918
6.976788394197098,0.989803055176412
6.990495247623811,0.9941738764615399
7.004202101050525,0.9959498819537146
7.017908954477238,0.995369657380905
7.031615807903951,0.9965867392359479
7.0453226613306645,0.9944510537903279
7.059029514757378,0.9929161194589893
7.072736368184091,0.9887665913312164
7.086443221610804,0.9854313198516488
7.100150075037518,0.9816978584519012
7.113856928464231,0.9764991631844863
7.127563781890945,0.9733369183091064
7.1412706353176585,0.968819416216811
7.154977488744372,0.9647400286158745
7.168684342171085,0.9645687781679084
7.182391195597798,0.9647504189453654
7.196098049024512,0.9668923042667791
7.209804902451225,0.9699357389325809
7.223511755877938,0.9741989795570154
7.2372186093046516,0.9801233674883146
7.250925462731365,0.9886040816869249
7.264632316158078,0.9975527667808236
7.278339169584791,1.004274336027788
7.292046023011505,1.012514961686613
7.305752876438218,1.017857930779983
7.319459729864932,1.0255449960332481
7.3331665832916455,1.0305816396990044
7.346873436718359,1.031871778193251
