time,flux
0.0,1.0137122400767096
0.013706853426713355,1.0129816114445225
0.02741370685342671,1.010242940027375
0.041120560280140064,1.007356970195868
0.05482741370685342,1.005119177907805
0.06853426713356678,1.0009569864781303
0.08224112056028013,0.9976083644179827
0.09594797398699349,0.994127982541348
0.10965482741370684,0.9917775634754056
0.1233616808404202,0.9897563768036931
0.13706853426713356,0.987228107501143
0.1507753876938469,0.9859945587742861
0.16448224112056026,0.9842650535871448
0.1781890945472736,0.984639037720521
0.19189594797398699,0.9848802894144955
0.20560280140070034,0.9864641608169393
0.21930965482741369,0.9879224608813091
0.23301650825412704,0.9907297619304685
0.2467233616808404,0.9939010678974998
0.26043021510755376,0.9971287772642067
0.2741370685342671,1.0004764888990003
0.28784392196098046,1.0041375747028043
0.3015507753876938,1.0084948920295909
0.31525762881440716,1.011315786573541
0.3289644822411205,1.0143824826252097
0.34267133566783387,1.0167271570704082
0.3563781890945472,1.018533897092441
0.3700850425212606,1.0194393431219964
0.38379189594797397,1.0196259964718244
0.3974987493746873,1.017922953440782
0.41120560280140067,1.016162695689574
0.424912456228114,1.0142492702520176
0.43861930965482737,1.0104856234617623
0.4523261630815407,1.0069558343925102
0.46603301650825407,1.002259993974058
0.4797398699349674,0.9984992917890054
0.4934467233616808,0.9929133665090365
0.5071535767883941,0.9896334018509141
0.5208604302151075,0.9863162431743098
0.5345672836418208,0.9827158776150213
0.5482741370685342,0.9796187250079164
0.5619809904952475,0.9775214608914277
0.5756878439219609,0.9769781410330673
0.5893946973486743,0.976854936265692
0.6031015507753876,0.9784709406888731
0.616808404202101,0.9788667178386677
0.6305152576288143,0.983304575726122
0.6442221110555277,0.9858695394337718
0.657928964482241,0.9905079482018756
0.6716358179089544,0.9955047400276825
0.6853426713356677,1.000522077473048
0.6990495247623811,1.0057089061706228
0.7127563781890944,1.01177418441642
0.7264632316158078,1.0143200302836775
0.7401700850425212,1.0191736764253116
0.7538769384692345,1.0232930623831724
0.7675837918959479,1.0254099530307885
0.7812906453226612,1.0266639721846946
0.7949974987493746,1.027872228403165
0.8087043521760879,1.0272566833489598
0.8224112056028013,1.0247838080627258
0.8361180590295146,1.021378890075566
0.849824912456228,1.0179170589588296
0.8635317658829413,1.0132125706546242
0.8772386193096547,1.008488983522075
0.8909454727363681,1.0031107691274754
0.9046523261630814,0.9964804216663932
0.9183591795897948,0.9912319466462737
0.9320660330165081,0.9850479026620804
0.9457728864432215,0.9804627279054181
0.9594797398699348,0.9752633730491629
0.9731865932966483,0.9725918019067997
0.9868934467233615,0.9712572345013673
1.000600300150075,0.9692696886718106
1.0143071535767882,0.9700270523625257
1.0280140070035018,0.9711246491911999
1.041720860430215,0.9732219998206882
1.0554277138569284,0.9779435605234889
1.0691345672836416,0.981970467287672
1.0828414207103552,0.9872833723655666
1.0965482741370685,0.9934071858566663
1.1102551275637818,0.9995726600134721
1.123961980990495,1.0052836653973618
1.1376688344172086,1.011445958964986
1.1513756878439219,1.017443483836157
1.1650825412706352,1.021844350132069
1.1787893946973487,1.0258641281980547
1.192496248124062,1.0298893128960378
1.2062031015507753,1.0313987744023472
1.2199099549774886,1.0323026193777802
1.233616808404202,1.0313957108292806
1.2473236618309154,1.0293223153497184
1.2610305152576287,1.0269640917604501
1.274737368684342,1.0239566815311336
1.2884442221110555,1.0177111750919805
1.3021510755377688,1.0113062530067272
1.315857928964482,1.0057799257369315
1.3295647823911956,0.9989993610645447
1.3432716358179089,0.992704535843842
1.3569784892446222,0.9870553642386458
1.3706853426713355,0.9819596810035333
1.384392196098049,0.9758610331752156
1.3980990495247623,0.9717256259645246
1.4118059029514756,0.9696905570182921
1.4255127563781889,0.9671719473268875
1.4392196098049024,0.9665455237225676
1.4529264632316157,0.968690769349035
1.466633316658329,0.9706113423462801
1.4803401700850425,0.9734369066379348
1.4940470235117558,0.9791142128709269
1.507753876938469,0.9857604759297892
1.5214607303651824,0.9905039925076013
1.5351675837918959,0.9952393271346154
1.5488744372186092,1.0017892681242988
1.5625812906453225,1.0075530130995878
1.5762881440720358,1.0142470680944005
1.5899949974987493,1.0199905776823883
1.6037018509254626,1.0243383223215872
1.6174087043521759,1.0282025365013265
1.6311155577788894,1.0303252891042753
1.6448224112056027,1.0320984336866876
1.658529264632316,1.031411845852488
1.6722361180590293,1.0302918161622212
1.6859429714857428,1.0270448241087513
1.699649824912456,1.0244517834113827
1.7133566783391694,1.0185419310424855
1.7270635317658827,1.0136639784771468
1.7407703851925962,1.00783683456756
1.7544772386193095,1.0021515506466354
1.7681840920460228,0.9961106904550313
1.7818909454727363,0.9906030410310986
1.7955977988994496,0.9850723924295232
1.8093046523261629,0.9808127063888591
1.8230115057528762,0.9758185758132565
1.8367183591795897,0.9720850771548661
1.850425212606303,0.971619870953679
1.8641320660330163,0.9711402254710488
1.8778389194597296,0.9704535007329529
1.891545772886443,0.9725866818541381
1.9052526263131564,0.9761506338060277
1.9189594797398697,0.9784823223651486
1.9326663331665832,0.9834014606795685
1.9463731865932965,0.990919222798342
1.9600800400200098,0.9945731058109135
1.973786893446723,1.0003738209793387
1.9874937468734366,1.0051007507155532
2.00120060030015,1.0103604564395843
2.014907453726863,1.0153190799974865
2.0286143071535765,1.0190203028698976
2.04232116058029,1.0235282359085964
2.0560280140070035,1.0252092886772477
2.069734867433717,1.026398259759757
2.08344172086043,1.025953308133703
2.0971485742871434,1.0260985709562493
2.1108554277138567,1.0233356885493723
2.12456228114057,1.0203072904248704
2.1382691345672833,1.0168281099939047
2.1519759879939966,1.0119475426135878
2.1656828414207103,1.0068768206516727
2.1793896948474236,1.0019821122521786
2.193096548274137,0.998083716909742
2.20680340170085,0.9931624594023725
2.2205102551275635,0.9892266543600505
2.234217108554277,0.9851835896158933
2.24792396198099,0.9819193995024839
2.261630815407704,0.9797424943409768
2.275337668834417,0.9776861892634472
2.2890445222611304,0.9782732281069787
2.3027513756878437,0.9783946340807431
2.316458229114557,0.980672687247753
2.3301650825412703,0.9820868956209471
2.3438719359679836,0.985380364019853
2.3575787893946973,0.9892294491215637
2.3712856428214106,0.9935706848741308
2.384992496248124,0.9967682297577665
2.3986993496748372,1.0014347946565543
2.4124062031015505,1.004797890897709
2.426113056528264,1.0094239030986332
2.439819909954977,1.0131663514995748
2.4535267633816904,1.0150313332432774
2.467233616808404,1.016280451459986
2.4809404702351174,1.0175819218478688
2.4946473236618307,1.0180527242895838
2.508354177088544,1.0177903074946955
2.5220610305152573,1.0164026251206861
2.5357678839419706,1.0137678558164578
2.549474737368684,1.0114864243308375
2.5631815907953976,1.0087206372476598
2.576888444222111,1.004578762307845
2.5905952976488242,1.0022266930438062
2.6043021510755375,0.9983838154135808
2.618009004502251,0.9945363810382297
2.631715857928964,0.9906460013478532
2.6454227113556774,0.9898455676114807
2.659129564782391,0.9870046896424082
2.6728364182091044,0.9850632672949923
2.6865432716358177,0.9846598986723659
2.700250125062531,0.9845373910511224
2.7139569784892443,0.9859376794677708
2.7276638319159576,0.9877741194349262
2.741370685342671,0.9891730046705749
2.755077538769384,0.9923938701554564
2.768784392196098,0.9954171639811429
2.7824912456228112,0.9987287623621381
2.7961980990495245,1.0014905945853436
2.809904952476238,1.0047538022418603
2.823611805902951,1.0072929612687214
2.8373186593296644,1.0108522739195582
2.8510255127563777,1.010712779275567
2.8647323661830915,1.0130669934987278
2.8784392196098048,1.0137835286647843
2.892146073036518,1.0140654098339257
2.9058529264632313,1.0141108122225242
2.9195597798899446,1.012201831041544
2.933266633316658,1.0094058306555425
2.9469734867433712,1.0086906310881891
2.960680340170085,1.0048305556932529
2.9743871935967983,1.0004913656655032
2.9880940470235116,0.9987310260297343
3.001800900450225,0.9948494410800787
3.015507753876938,0.9920241282130474
3.0292146073036514,0.9895492819020119
3.0429214607303647,0.9875784324606613
3.056628314157078,0.985646713762534
3.0703351675837918,0.9848504419747509
3.084042021010505,0.9853344843468402
3.0977488744372184,0.9849787328617213
3.1114557278639317,0.9866743178367028
3.125162581290645,0.988475198641268
3.1388694347173582,0.9905600353201552
3.1525762881440715,0.9932538917137459
3.1662831415707853,0.997496529936223
3.1799899949974986,1.0016750684711282
3.193696848424212,1.0045526211189708
3.207403701850925,1.00929006309256
3.2211105552776385,1.0110767124952025
3.2348174087043517,1.0154881325754792
3.248524262131065,1.016613273712938
3.262231115557779,1.0182778912880206
3.275937968984492,1.018981101239988
3.2896448224112054,1.0193125467103639
3.3033516758379187,1.017775663349047
3.317058529264632,1.0165246341938439
3.3307653826913453,1.014425693698953
3.3444722361180586,1.010564355115046
3.358179089544772,1.0058495799452074
3.3718859429714856,1.0023573631675353
3.385592796398199,0.9979613746286399
3.399299649824912,0.9942727521855977
3.4130065032516255,0.9890858469443005
3.4267133566783388,0.9851378843544548
3.440420210105052,0.9816360717384824
3.4541270635317654,0.9798651834725755
3.467833916958479,0.9778587956713698
3.4815407703851924,0.977365009077345
3.4952476238119057,0.9774434730478267
3.508954477238619,0.9783247603047341
3.5226613306653323,0.980723387137772
3.5363681840920456,0.982879637744631
3.550075037518759,0.986737346329093
3.5637818909454726,0.9907854693161385
3.577488744372186,0.9966504943616774
3.591195597798899,1.0010228622139357
3.6049024512256125,1.0061925148966986
3.6186093046523258,1.011241131365944
3.632316158079039,1.015761171675677
3.6460230115057524,1.0189964896506236
3.659729864932466,1.0232516842787942
3.6734367183591794,1.0250864727293818
3.6871435717858927,1.0268560770457564
3.700850425212606,1.026774832654039
3.7145572786393193,1.026094377832142
3.7282641320660326,1.024407531515005
3.741970985492746,1.0215754278883107
3.755677838919459,1.0172509535297067
3.769384692346173,1.0127439992949874
3.783091545772886,1.008557110362782
3.7967983991995995,1.00234156295048
3.810505252626313,0.9974370909125879
3.824212106053026,0.9899274618089771
3.8379189594797394,0.9844525536243469
3.8516258129064527,0.9804374410533463
3.8653326663331664,0.9759655129616613
3.8790395197598797,0.9728380554956231
3.892746373186593,0.9708514065297823
3.9064532266133063,0.9708802391121116
3.9201600800400196,0.9700048168683714
3.933866933466733,0.9719870802181624
3.947573786893446,0.9740098921056842
3.96128064032016,0.9780403761501961
3.974987493746873,0.9830084005108906
3.9886943471735865,0.9880717959969921
4.0024012006003,0.9937765517942359
4.016108054027013,0.9997359960220322
4.029814907453726,1.0058002719162062
4.04352176088044,1.0124082308206073
4.057228614307153,1.0178909074741294
4.070935467733866,1.0214225198459965
4.08464232116058,1.0273497485856136
4.098349174587293,1.0299073071631168
4.112056028014007,1.031633525052051
4.12576288144072,1.0329873653163022
4.139469734867434,1.0319269414312962
4.153176588294147,1.0290900454195904
4.16688344172086,1.0265823614093508
4.1805902951475735,1.0232161895644065
4.194297148574287,1.0164073137895275
4.208004002001,1.0109227065401227
4.221710855427713,1.0058611142473188
4.235417708854427,0.998952917764504
4.24912456228114,0.9930254356320124
4.262831415707853,0.986390838394585
4.276538269134567,0.9803347774312428
4.29024512256128,0.9752343691341141
4.303951975987993,0.9713642523941138
4.317658829414707,0.9694928907206947
4.331365682841421,0.9673223609042181
4.345072536268134,0.9672677750280199
4.358779389694847,0.9676579123501331
4.3724862431215605,0.9718363849319428
4.386193096548274,0.9745515664300439
4.399899949974987,0.9788351615045356
4.4136068034017,0.984109852537297
4.427313656828414,0.9896041444613988
4.441020510255127,0.9968701550627116
4.45472736368184,1.0031979170889158
4.468434217108554,1.0094258732620283
4.482141070535267,1.0146565761862738
4.49584792396198,1.021044154637197
4.5095547773886935,1.024486116794087
4.523261630815408,1.0279567186905334
4.536968484242121,1.030897286860503
4.550675337668834,1.0311811648698044
4.5643821910955475,1.0323132492049052
4.578089044522261,1.030009942264895
4.591795897948974,1.0275047361136656
4.605502751375687,1.0234444711771866
4.619209604802401,1.0188285724364379
4.632916458229114,1.0141224066726182
4.646623311655827,1.0071939330473134
4.660330165082541,1.0016867300468206
4.674037018509254,0.9947892851865565
4.687743871935967,0.989701227104147
4.7014507253626805,0.9847038348014646
4.715157578789395,0.9785020782829363
4.728864432216108,0.9755545444007838
4.742571285642821,0.9723802206975355
4.756278139069535,0.9712227765058332
4.769984992496248,0.9701900351830629
4.783691845922961,0.9708594986639353
4.7973986993496744,0.9720010661672437
4.811105552776388,0.9749979990391693
4.824812406203101,0.9794296328224611
4.838519259629814,0.9831299266943067
4.852226113056528,0.9882252345000481
4.865932966483241,0.9938720963550215
4.879639819909954,1.0001152703010048
4.8933466733366675,1.0051310760261367
4.907053526763381,1.0115950502547626
4.920760380190095,1.015994852166864
4.934467233616808,1.0193284179375968
4.948174087043522,1.023628932484292
4.961880940470235,1.0246268964728118
4.975587793896948,1.0253691233349507
4.9892946473236615,1.0264518309628667
5.003001500750375,1.0253345791910333
5.016708354177088,1.0225614462852637
5.030415207603801,1.0199743273031245
5.044122061030515,1.0163115460090117
5.057828914457228,1.0109401248845546
5.071535767883941,1.0077676039039685
5.0852426213106545,1.0051425062424082
5.098949474737368,0.9965030757236963
5.112656328164081,0.9914737348249263
5.126363181590795,0.9894596321327408
5.140070035017509,0.9846009243298308
5.153776888444222,0.9808418446028172
5.167483741870935,0.9793192224489
5.1811905952976485,0.9774496247036984
5.194897448724362,0.9769419140989496
5.208604302151075,0.9785063755616477
5.222311155577788,0.9792167977340765
5.236018009004502,0.9812713810537307
5.249724862431215,0.9846440091433164
5.263431715857928,0.9889358122852672
5.2771385692846415,0.9925207178910525
5.290845422711355,0.9963794114677357
5.304552276138068,1.0010202199726235
5.318259129564782,1.0052556320920938
5.331965982991496,1.0089596345809586
5.345672836418209,1.0123709125516662
5.359379689844922,1.0147699455052421
5.3730865432716355,1.0174165812928924
5.386793396698349,1.0177219582489891
5.400500250125062,1.0186377210528548
5.414207103551775,1.0177437938984397
5.427913956978489,1.0167086745233112
5.441620810405202,1.0144653446984155
5.455327663831915,1.0111665815909576
5.4690345172586285,1.008786475569096
5.482741370685342,1.0047165560291833
5.496448224112055,1.000931074159257
5.510155077538768,0.9977447589473768
5.523861930965483,0.9948680355253733
5.537568784392196,0.990829493202335
5.551275637818909,0.9880384286536867
5.5649824912456225,0.9863822813818001
5.578689344672336,0.9856258121414815
5.592396198099049,0.9850563521422245
5.606103051525762,0.9845725092810305
5.619809904952476,0.9865784823515277
5.633516758379189,0.9874144420065466
5.647223611805902,0.9884797716097217
5.660930465232616,0.9912119469179695
5.674637318659329,0.9949373268230581
5.688344172086042,0.9970841366524992
5.7020510255127554,1.0010350426875834
5.71575787893947,1.0053187238541235
5.729464732366183,1.0076426355732893
5.743171585792896,1.0099220473550279
5.7568784392196095,1.0129716860369224
5.770585292646323,1.0130074370317053
5.784292146073036,1.013791935585061
5.797998999499749,1.0135787108517147
5.811705852926463,1.01359179812576
5.825412706353176,1.011695513814814
5.839119559779889,1.0096704908222434
5.852826413206603,1.008432955446318
5.866533266633316,1.0036923311355515
5.880240120060029,1.0018784541066283
5.8939469734867425,0.9982359452276389
5.907653826913456,0.9952305033866683
5.92136068034017,0.9928118258255867
5.935067533766883,0.988635011878583
5.9487743871935965,0.9878097059340917
5.96248124062031,0.9854902084281467
5.976188094047023,0.9845214032842163
5.989894947473736,0.9852391816345716
6.00360180090045,0.9842930014780641
6.017308654327163,0.9864000161655182
6.031015507753876,0.988437861348036
6.04472236118059,0.9911748214139683
6.058429214607303,0.9936375036090488
6.072136068034016,0.9972420909049015
6.0858429214607295,1.0015897297071827
6.099549774887443,1.0045112781621601
6.113256628314156,1.008198903578042
6.12696348174087,1.0121330859459368
6.1406703351675835,1.014838267645124
6.154377188594297,1.016734840856068
6.16808404202101,1.0181013191278814
6.181790895447723,1.0177535133895892
6.195497748874437,1.0196456607471334
6.20920460230115,1.0173035885201864
6.222911455727863,1.0165174806594302
6.236618309154577,1.0133651495057368
6.25032516258129,1.0099614680686124
6.264032016008003,1.0057916166139511
6.2777388694347165,1.001672479586483
6.29144572286143,0.9979302911743717
6.305152576288143,0.9937033711285069
6.318859429714857,0.9885561962402745
6.3325662831415706,0.9858356562966833
6.346273136568284,0.9828092712111425
6.359979989994997,0.9800087597927143
6.37368684342171,0.9773288648321502
6.387393696848424,0.9775462172692371
6.401100550275137,0.9771258306739109
6.41480740370185,0.9784897959454263
6.428514257128564,0.9814618430906876
6.442221110555277,0.9831290956840458
6.45592796398199,0.9869222794828293
6.4696348174087035,0.9914802204365182
6.483341670835417,0.9959122189467458
6.49704852426213,1.001450508906988
6.510755377688843,1.006504561255043
6.524462231115558,1.0116153164278714
6.538169084542271,1.0167411845082983
6.551875937968984,1.0188735974095786
6.5655827913956974,1.022935147842124
6.579289644822411,1.0251366175134147
6.592996498249124,1.0272714470168138
6.606703351675837,1.0261603031948778
6.620410205102551,1.0261639877187654
6.634117058529264,1.0243575245333663
6.647823911955977,1.0208787241629322
6.6615307653826905,1.0170819934637518
6.675237618809404,1.0115740074180315
6.688944472236117,1.0065106920787525
6.70265132566283,1.0000695498480439
6.716358179089544,0.9960025353107758
6.730065032516258,0.9894924577410708
6.743771885942971,0.9852263211801975
6.7574787393696845,0.9802694775074019
6.771185592796398,0.9757833910277071
6.784892446223111,0.9727251652586688
6.798599299649824,0.9713511395624821
6.812306153076538,0.9693667676483132
6.826013006503251,0.9712956038400427
6.839719859929964,0.9714783345251834
6.8534267133566775,0.9746093946672593
6.867133566783391,0.9787114812279982
6.880840420210104,0.9830288790701976
6.894547273636817,0.9881457289621666
6.908254127063531,0.993488559113402
6.921960980490245,1.0003164037984527
6.935667833916958,1.0060391954390246
6.9493746873436715,1.0128605259106558
6.963081540770385,1.0182405125601632
6.976788394197098,1.0226236668531172
6.990495247623811,1.0275162261857824
7.004202101050525,1.029064570394809
7.017908954477238,1.0311925180722994
7.031615807903951,1.0323115838571595
7.0453226613306645,1.031440200307305
7.059029514757378,1.0292872791342327
7.072736368184091,1.026320703336368
7.086443221610804,1.022091576966911
7.100150075037518,1.0155602839569542
7.113856928464231,1.0111871464478854
7.127563781890945,1.0048308276430484
7.1412706353176585,0.995867711817275
7.154977488744372,0.990479080774899
7.168684342171085,0.9851784909786285
7.182391195597798,0.980096236319555
7.196098049024512,0.9748694535308534
7.209804902451225,0.9718458804457647
7.223511755877938,0.9692323131150468
7.2372186093046516,0.9676742925244536
7.250925462731365,0.9663560306280199
7.264632316158078,0.9682694940451472
7.278339169584791,0.9699360410808789
7.292046023011505,0.9754722257096793
7.305752876438218,0.9791262124510478
7.319459729864932,0.984856047544028
7.3331665832916455,0.989979058512776
7.346873436718359,0.9987461133529696
