time,flux
0.0,1.005839172723301
0.013706853426713355,1.0033447969367353
0.02741370685342671,1.0002240230075636
0.041120560280140064,0.9975199554484178
0.05482741370685342,0.9932148637017592
0.06853426713356678,0.9913829346662011
0.08224112056028013,0.9882175123553083
0.09594797398699349,0.9871178187713985
0.10965482741370684,0.9845637860902476
0.1233616808404202,0.9828792865721849
0.13706853426713356,0.9816964951299262
0.1507753876938469,0.9799038460424824
0.16448224112056026,0.9804032111163712
0.1781890945472736,0.9809114441605346
0.19189594797398699,0.9805340671887044
0.20560280140070034,0.9825606713758532
0.21930965482741369,0.9846926704954231
0.23301650825412704,0.9856524127251683
0.2467233616808404,0.9873884027931866
0.26043021510755376,0.9900492818358169
0.2741370685342671,0.9924460890690545
0.28784392196098046,0.9960210800756298
0.3015507753876938,0.9979968431763492
0.31525762881440716,1.0014097698378217
0.3289644822411205,1.0041729796643337
0.34267133566783387,1.0072663513092561
0.3563781890945472,1.0104441487245146
0.3700850425212606,1.0125142184818336
0.38379189594797397,1.0142873788654856
0.3974987493746873,1.0158666202750173
0.41120560280140067,1.0184669626254692
0.424912456228114,1.0192056715032405
0.43861930965482737,1.0233555157380085
0.4523261630815407,1.0194013811133713
0.46603301650825407,1.0215373665327145
0.4797398699349674,1.0184059748919916
0.4934467233616808,1.0177646421235376
0.5071535767883941,1.0152356990465816
0.5208604302151075,1.014572725970463
0.5345672836418208,1.0118804687565022
0.5482741370685342,1.0093357106129723
0.5619809904952475,1.00633015002806
0.5756878439219609,1.0023604133485295
0.5893946973486743,1.0012815619354338
0.6031015507753876,0.997401696170692
0.616808404202101,0.9955272679885636
0.6305152576288143,0.9929636391076248
0.6442221110555277,0.9895731469005009
0.657928964482241,0.9871581075870072
0.6716358179089544,0.9841905416144849
0.6853426713356677,0.9833302082121685
0.6990495247623811,0.9820814154840457
0.7127563781890944,0.9812692017635706
0.7264632316158078,0.9802630185073338
0.7401700850425212,0.9809683173275976
0.7538769384692345,0.9804484139514377
0.7675837918959479,0.9815800967333421
0.7812906453226612,0.9831264628064611
0.7949974987493746,0.9844328313942875
0.8087043521760879,0.9874572031886945
0.8224112056028013,0.9892646247590746
0.8361180590295146,0.9925779805372033
0.849824912456228,0.9939342429256184
0.8635317658829413,0.9977436437267428
0.8772386193096547,1.0001069606607564
0.8909454727363681,1.0033975174887813
0.9046523261630814,1.007264527915005
0.9183591795897948,1.0088434836165479
0.9320660330165081,1.0115736341934924
0.9457728864432215,1.0140585664619723
0.9594797398699348,1.0159123777940862
0.9731865932966483,1.017638178650247
0.9868934467233615,1.0188856940557796
1.000600300150075,1.0194580448818333
1.0143071535767882,1.0209600113017387
1.0280140070035018,1.0212623249666928
1.041720860430215,1.0193847853412203
1.0554277138569284,1.0181504760244642
1.0691345672836416,1.016385932275788
1.0828414207103552,1.015035705724026
1.0965482741370685,1.012449078225965
1.1102551275637818,1.0082078586063237
1.123961980990495,1.0075748128889113
1.1376688344172086,1.0037645527284131
1.1513756878439219,1.0013364691880142
1.1650825412706352,0.9974489943035291
1.1787893946973487,0.9957740091644933
1.192496248124062,0.9925799847175721
1.2062031015507753,0.9906316479429742
1.2199099549774886,0.9882559880831631
1.233616808404202,0.9851501503938754
1.2473236618309154,0.9822112805621954
1.2610305152576287,0.982079645634577
1.274737368684342,0.9814338263603618
1.2884442221110555,0.9814164978852206
1.3021510755377688,0.9809649300474306
1.315857928964482,0.9809629839449155
1.3295647823911956,0.9807872641615315
1.3432716358179089,0.9828709023223842
1.3569784892446222,0.9854711466393042
1.3706853426713355,0.9869166277881403
1.384392196098049,0.9879008699982144
1.3980990495247623,0.991217364259933
1.4118059029514756,0.9945342728309632
1.4255127563781889,0.996430819054248
1.4392196098049024,1.0006065737182002
1.4529264632316157,1.0035305014269982
1.466633316658329,1.0057043277921154
1.4803401700850425,1.0080516260902366
1.4940470235117558,1.0104879228704131
1.507753876938469,1.0153874335767794
1.5214607303651824,1.0156100640987646
1.5351675837918959,1.0171952861573135
1.5488744372186092,1.0185092181266748
1.5625812906453225,1.0191565698645042
1.5762881440720358,1.0203731344030393
1.5899949974987493,1.019339530511853
1.6037018509254626,1.0188688263465295
1.6174087043521759,1.0196004632352769
1.6311155577788894,1.0166360941081516
1.6448224112056027,1.0154630722148879
1.658529264632316,1.0140356678400981
1.6722361180590293,1.0099630394483112
1.6859429714857428,1.0073505159795533
1.699649824912456,1.0049753210033792
1.7133566783391694,1.0030538741819333
1.7270635317658827,1.0006209299830175
1.7407703851925962,0.996128592235502
1.7544772386193095,0.9928317637945062
1.7681840920460228,0.9905755907909106
1.7818909454727363,0.9879451104972273
1.7955977988994496,0.9857577725087354
1.8093046523261629,0.9839089628536568
1.8230115057528762,0.9837023768894136
1.8367183591795897,0.9810927779117433
1.850425212606303,0.9811682860200471
1.8641320660330163,0.9805185199260449
1.8778389194597296,0.9809748284914125
1.891545772886443,0.9805895423815185
1.9052526263131564,0.9827718772540003
1.9189594797398697,0.98496162704198
1.9326663331665832,0.9858961381485317
1.9463731865932965,0.9867868299427526
1.9600800400200098,0.9902701469473983
1.973786893446723,0.993369927398004
1.9874937468734366,0.9963528247123014
2.00120060030015,1.0031203014630945
2.014907453726863,1.001404631325707
2.0286143071535765,1.0045956097085993
2.04232116058029,1.009872832666165
2.0560280140070035,1.0108933696661162
2.069734867433717,1.0135808792962024
2.08344172086043,1.0160520762287908
2.0971485742871434,1.018053384523874
2.1108554277138567,1.0188891029904628
2.12456228114057,1.0185687264695393
2.1382691345672833,1.0194407806023214
2.1519759879939966,1.019126211121625
2.1656828414207103,1.0198014115010068
2.1793896948474236,1.0177917358463209
2.193096548274137,1.0172260665802861
2.20680340170085,1.0148023996994906
2.2205102551275635,1.0130240750251698
2.234217108554277,1.0113818349423656
2.24792396198099,1.0083889356625737
2.261630815407704,1.0058204300382356
2.275337668834417,1.0039222462763147
2.2890445222611304,0.9992433154350325
2.3027513756878437,0.9965302586683191
2.316458229114557,0.9925745798640336
2.3301650825412703,0.9914013855048004
2.3438719359679836,0.9890018882780091
2.3575787893946973,0.9867885002070403
2.3712856428214106,0.9841576264696066
2.384992496248124,0.9838931296298402
2.3986993496748372,0.9822195910056196
2.4124062031015505,0.9812615978116758
2.426113056528264,0.9805629633322593
2.439819909954977,0.9808770542254915
2.4535267633816904,0.9801393711242512
2.467233616808404,0.9831174996688752
2.4809404702351174,0.9840129253878654
2.4946473236618307,0.9856952961699623
2.508354177088544,0.9869389752840158
2.5220610305152573,0.9891671533637998
2.5357678839419706,0.9911019498316447
2.549474737368684,0.9956758820504731
2.5631815907953976,0.9991312111659298
2.576888444222111,1.0017573590125324
2.5905952976488242,1.0049775563619856
2.6043021510755375,1.0081360746827015
2.618009004502251,1.0108139445810052
2.631715857928964,1.0128298737507828
2.6454227113556774,1.0151091877215492
2.659129564782391,1.01597933259194
2.6728364182091044,1.0184894184439908
2.6865432716358177,1.0183327098224926
2.700250125062531,1.0185794469818226
2.7139569784892443,1.0195404091218547
2.7276638319159576,1.0191139050209161
2.741370685342671,1.0185422495518484
2.755077538769384,1.0176203318652088
2.768784392196098,1.016286247929867
2.7824912456228112,1.014477839729927
2.7961980990495245,1.0115470444905112
2.809904952476238,1.0096456475394828
2.823611805902951,1.006677332377279
2.8373186593296644,1.0036790327573073
2.8510255127563777,1.000308936269897
2.8647323661830915,0.9966996875646718
2.8784392196098048,0.9952841933415908
2.892146073036518,0.9917203733210144
2.9058529264632313,0.9887382563944499
2.9195597798899446,0.9871164348573658
2.933266633316658,0.985186392101174
2.9469734867433712,0.9819696133217822
2.960680340170085,0.9815259511913175
2.9743871935967983,0.9792588149225199
2.9880940470235116,0.9798211640495019
3.001800900450225,0.9855971387918719
3.015507753876938,0.9804182762781114
3.0292146073036514,0.9826988998949598
3.0429214607303647,0.9839433286441609
3.056628314157078,0.984617178071465
3.0703351675837918,0.985444742604874
3.084042021010505,0.9895805380536629
3.0977488744372184,0.9930286338957606
3.1114557278639317,0.9948675091866663
3.125162581290645,0.9987000851888475
3.1388694347173582,1.0013216056824066
3.1525762881440715,1.0030283548758636
3.1662831415707853,1.0067300364740173
3.1799899949974986,1.0093960724392261
3.193696848424212,1.0127290272462306
3.207403701850925,1.0141778942823598
3.2211105552776385,1.0161518820166349
3.2348174087043517,1.0172618517880858
3.248524262131065,1.0186707290477433
3.262231115557779,1.019233146783342
3.275937968984492,1.0198808735682725
3.2896448224112054,1.0191529563287802
3.3033516758379187,1.0184799320313367
3.317058529264632,1.0175178304789954
3.3307653826913453,1.0155936658086515
3.3444722361180586,1.0146434459784235
3.358179089544772,1.012949371213588
3.3718859429714856,1.008562001452644
3.385592796398199,1.0070136464883863
3.399299649824912,1.004350189573944
3.4130065032516255,1.0015674598011424
3.4267133566783388,0.9967643866415081
3.440420210105052,0.9954951008833214
3.4541270635317654,0.9925317904425811
3.467833916958479,0.9894134635986942
3.4815407703851924,0.987418383083228
3.4952476238119057,0.9857985082443028
3.508954477238619,0.9831927319284525
3.5226613306653323,0.980786507982988
3.5363681840920456,0.9816244301765656
3.550075037518759,0.9811403992395104
3.5637818909454726,0.9815247552445828
3.577488744372186,0.980615718023268
3.591195597798899,0.9818099240906917
3.6049024512256125,0.9827914120678243
3.6186093046523258,0.9835122435282292
3.632316158079039,0.9862700375965262
3.6460230115057524,0.9872780603692483
3.659729864932466,0.9911996397138323
3.6734367183591794,0.9931509107803677
3.6871435717858927,0.9973786842714207
3.700850425212606,1.0016155791913373
3.7145572786393193,1.0026002249632495
3.7282641320660326,1.005741537480339
3.741970985492746,1.0093135349935465
3.755677838919459,1.011287019705426
3.769384692346173,1.0128167853931065
3.783091545772886,1.0165516900281366
3.7967983991995995,1.0170813789986146
3.810505252626313,1.0185640110289105
3.824212106053026,1.019336281505389
3.8379189594797394,1.019446139380473
3.8516258129064527,1.020999779880625
3.8653326663331664,1.0209607058738135
3.8790395197598797,1.0179226651774396
3.892746373186593,1.0165005239201639
3.9064532266133063,1.0150167566254646
3.9201600800400196,1.0127249112244185
3.933866933466733,1.0108662675642415
3.947573786893446,1.0068034640312709
3.96128064032016,1.0048375736935482
3.974987493746873,1.00194345486409
3.9886943471735865,0.9989404641420494
4.0024012006003,0.9951925119441066
4.016108054027013,0.9933280952375911
4.029814907453726,0.9897405867951308
4.04352176088044,0.9875512871456572
4.057228614307153,0.9863377588565402
4.070935467733866,0.9839208407988753
4.08464232116058,0.9824942075163636
4.098349174587293,0.9815995938202162
4.112056028014007,0.980607532640275
4.12576288144072,0.9802471611197512
4.139469734867434,0.9807552515550545
4.153176588294147,0.9815954465587331
4.16688344172086,0.9828486795139612
4.1805902951475735,0.9836001828968258
4.194297148574287,0.986861264463325
4.208004002001,0.9892250910985279
4.221710855427713,0.9913981150731964
4.235417708854427,0.9936843530224682
4.24912456228114,0.9978000898870405
4.262831415707853,0.9990988429682298
4.276538269134567,1.0027419798977604
4.29024512256128,1.0053122885970887
4.303951975987993,1.0080416590016286
4.317658829414707,1.0119512938373383
4.331365682841421,1.0128796227316765
4.345072536268134,1.0163098055666535
4.358779389694847,1.016492660160097
4.3724862431215605,1.0167375613564282
4.386193096548274,1.0192949118357262
4.399899949974987,1.0195408681838796
4.4136068034017,1.02036758294512
4.427313656828414,1.0187985324732713
4.441020510255127,1.0184121274895188
4.45472736368184,1.0165646374090431
4.468434217108554,1.0151308256134435
4.482141070535267,1.0134306435534552
4.49584792396198,1.009962906370567
4.5095547773886935,1.0078678091675672
4.523261630815408,1.0063415140719252
4.536968484242121,1.0016720087552853
4.550675337668834,0.9988245154576617
4.5643821910955475,0.9963556159433291
4.578089044522261,0.9933852283572411
4.591795897948974,0.989890425949196
4.605502751375687,0.9882029933269812
4.619209604802401,0.9854174496816969
4.632916458229114,0.9843976467463983
4.646623311655827,0.9829138828198757
4.660330165082541,0.9810430894694026
4.674037018509254,0.9810175965921649
4.687743871935967,0.9804288593458856
4.7014507253626805,0.9814034920109241
4.715157578789395,0.9814314489955208
4.728864432216108,0.9821298417766506
4.742571285642821,0.9838057631120969
4.756278139069535,0.9857633032773615
4.769984992496248,0.9885972660391501
4.783691845922961,0.9903555766913902
4.7973986993496744,0.993712334592206
4.811105552776388,0.9958292495385616
4.824812406203101,0.9980618073869765
4.838519259629814,1.0019369535259681
4.852226113056528,1.0055654759017434
4.865932966483241,1.0077364828634645
4.879639819909954,1.0100637598232984
4.8933466733366675,1.0129431158799884
4.907053526763381,1.0135225715284417
4.920760380190095,1.0167146491274732
4.934467233616808,1.017725807229348
4.948174087043522,1.0193249764167014
4.961880940470235,1.0199693247064123
4.975587793896948,1.0204339202570827
4.9892946473236615,1.0204530344921616
5.003001500750375,1.0182916091530307
5.016708354177088,1.0170647806165642
5.030415207603801,1.01558741539976
5.044122061030515,1.0133378058229001
5.057828914457228,1.0109224929123264
5.071535767883941,1.0092211142452205
5.0852426213106545,1.0048753423086225
5.098949474737368,1.0022075853186905
5.112656328164081,0.9999253203293613
5.126363181590795,0.9975281618567746
5.140070035017509,0.9945410914742472
5.153776888444222,0.9909042207578743
5.167483741870935,0.9883021845160407
5.1811905952976485,0.9875224730656802
5.194897448724362,0.9843147142404622
5.208604302151075,0.9823009008791145
5.222311155577788,0.9811675758206281
5.236018009004502,0.9821494538521468
5.249724862431215,0.9812624287659342
5.263431715857928,0.980728867600307
5.2771385692846415,0.9804837650855746
5.290845422711355,0.9807148446630848
5.304552276138068,0.9833825617998565
5.318259129564782,0.9854154511998301
5.331965982991496,0.9873119456091571
5.345672836418209,0.9905549204220506
5.359379689844922,0.9921699708433561
5.3730865432716355,0.9953687678059467
5.386793396698349,0.9986120513929336
5.400500250125062,1.0012572970059268
5.414207103551775,1.003387206774472
5.427913956978489,1.0069051731306708
5.441620810405202,1.010305562821117
5.455327663831915,1.0120276462378246
5.4690345172586285,1.0155706470428572
5.482741370685342,1.0163300289811104
5.496448224112055,1.0178878573522967
5.510155077538768,1.016825914990394
5.523861930965483,1.019628171855889
5.537568784392196,1.0194210085999362
5.551275637818909,1.0195029923259893
5.5649824912456225,1.0195572566911981
5.578689344672336,1.0173882930951572
5.592396198099049,1.0152424076018507
5.606103051525762,1.0140049935396551
5.619809904952476,1.0121057383984777
5.633516758379189,1.0087645534635754
5.647223611805902,1.0070496501481148
5.660930465232616,1.003822373495515
5.674637318659329,1.0000531453738464
5.688344172086042,0.9970176797726755
5.7020510255127554,0.9938864554231609
5.71575787893947,0.9915311252742567
5.729464732366183,0.9894185224574283
5.743171585792896,0.9858502434473779
5.7568784392196095,0.9848327789708833
5.770585292646323,0.9836755217730504
5.784292146073036,0.9815962510859865
5.797998999499749,0.9804087895890746
5.811705852926463,0.9801386213367304
5.825412706353176,0.9805189973214554
5.839119559779889,0.980123440231649
5.852826413206603,0.9810333479439919
5.866533266633316,0.9835181955799982
5.880240120060029,0.9850586129881161
5.8939469734867425,0.987266022724975
5.907653826913456,0.9894629741962834
5.92136068034017,0.9923516338850414
5.935067533766883,0.9953646320677354
5.9487743871935965,0.9973075074173241
5.96248124062031,1.000457211762989
5.976188094047023,1.0030540432591983
5.989894947473736,1.006452684867726
6.00360180090045,1.0099731789290125
6.017308654327163,1.010976693570686
6.031015507753876,1.013448127115815
6.04472236118059,1.017442973590631
6.058429214607303,1.016988939958045
6.072136068034016,1.0187774406477543
6.0858429214607295,1.0191844286072573
6.099549774887443,1.0179975757249822
6.113256628314156,1.0198103763125954
6.12696348174087,1.0188387113245545
6.1406703351675835,1.0162435607489666
6.154377188594297,1.0168186143481175
6.16808404202101,1.0136269146685166
6.181790895447723,1.011324010904788
6.195497748874437,1.009876490954248
6.20920460230115,1.0068442186783728
6.222911455727863,1.0027448019935952
6.236618309154577,1.0016023605035138
6.25032516258129,0.9973235018348714
6.264032016008003,0.9953951536416957
6.2777388694347165,0.9925998483405523
6.29144572286143,0.9896735579754364
6.305152576288143,0.9873708640028916
6.318859429714857,0.985795196284768
6.3325662831415706,0.9812915753278125
6.346273136568284,0.982596912738245
6.359979989994997,0.9811656982538894
6.37368684342171,0.9798267622912225
6.387393696848424,0.9804119707731233
6.401100550275137,0.9806727393037554
6.41480740370185,0.9812034842107417
6.428514257128564,0.9832474001512269
6.442221110555277,0.9844915332206007
6.45592796398199,0.9862673437092296
6.4696348174087035,0.9885422804534765
6.483341670835417,0.9923146649351265
6.49704852426213,0.9938630191105704
6.510755377688843,0.9965452698592269
6.524462231115558,1.0007438583772343
6.538169084542271,1.0029920404746833
6.551875937968984,1.0059118026253686
6.5655827913956974,1.009381721130144
6.579289644822411,1.011419935712092
6.592996498249124,1.0125829700298177
6.606703351675837,1.0150055534109967
6.620410205102551,1.0176514488360466
6.634117058529264,1.0188396760188012
6.647823911955977,1.0195579184733214
6.6615307653826905,1.0200087611476596
6.675237618809404,1.0202610419852645
6.688944472236117,1.0192363978272394
6.70265132566283,1.0181573841701836
6.716358179089544,1.0168867386345795
6.730065032516258,1.015548753694454
6.743771885942971,1.0123996913662638
6.7574787393696845,1.010387212224083
6.771185592796398,1.0079390283715253
6.784892446223111,1.0040726660468033
6.798599299649824,1.0012776232996001
6.812306153076538,0.9985687466254454
6.826013006503251,0.9960172458908643
6.839719859929964,0.9930077823393745
6.8534267133566775,0.990392888864712
6.867133566783391,0.9871911092028725
6.880840420210104,0.9857548357303296
6.894547273636817,0.9841330493699363
6.908254127063531,0.9827836252492789
6.921960980490245,0.9818650649005608
6.935667833916958,0.9796716911248128
6.9493746873436715,0.9795361310524708
6.963081540770385,0.9800446855510863
6.976788394197098,0.982106672983726
6.990495247623811,0.9829092488870456
7.004202101050525,0.9845159778198052
7.017908954477238,0.9857311265554056
7.031615807903951,0.9878129522471671
7.0453226613306645,0.9913144417867071
7.059029514757378,0.9938823105679682
7.072736368184091,0.9961786836609605
7.086443221610804,0.999044150711702
7.100150075037518,1.0020495129423215
7.113856928464231,1.0054833398627587
7.127563781890945,1.0070856553095342
7.1412706353176585,1.010312002517357
7.154977488744372,1.012786577420318
7.168684342171085,1.014960553299502
7.182391195597798,1.0166249873564577
7.196098049024512,1.0181252872307374
7.209804902451225,1.0192442859547701
7.223511755877938,1.01891641676421
7.2372186093046516,1.020502387750021
7.250925462731365,1.0197057660593598
7.264632316158078,1.0179779492586907
7.278339169584791,1.0159301844994562
7.292046023011505,1.0157832583914823
7.305752876438218,1.0123182520161615
7.319459729864932,1.0104184368302873
7.3331665832916455,1.0068058094559604
