time,flux
0.0,1.0134260841203515
0.013706853426713355,1.0096398886872697
0.02741370685342671,1.00486206649697
0.041120560280140064,1.0003091825153159
0.05482741370685342,0.9957568134379238
0.06853426713356678,0.9922044757420492
0.08224112056028013,0.9881085547906667
0.09594797398699349,0.9845443695522439
0.10965482741370684,0.9823062434638322
0.1233616808404202,0.9815380589443387
0.13706853426713356,0.9810402981345248
0.1507753876938469,0.981769081673448
0.16448224112056026,0.984210422375026
0.1781890945472736,0.9864799584215043
0.19189594797398699,0.9914950398695644
0.20560280140070034,0.9936319030927825
0.21930965482741369,0.9986147704727448
0.23301650825412704,1.0034061888022812
0.2467233616808404,1.006680734198177
0.26043021510755376,1.0108347015961143
0.2741370685342671,1.0122069563865235
0.28784392196098046,1.0139626610823245
0.3015507753876938,1.0145920154685462
0.31525762881440716,1.015367541105909
0.3289644822411205,1.014173160128414
0.34267133566783387,1.0114206239130112
0.3563781890945472,1.0079987258207816
0.3700850425212606,1.004874218958575
0.38379189594797397,1.0004551191497904
0.3974987493746873,0.996539975854118
0.41120560280140067,0.9923528425480895
0.424912456228114,0.9884945222439897
0.43861930965482737,0.9841616751662453
0.4523261630815407,0.9817539180535871
0.46603301650825407,0.9802106205579205
0.4797398699349674,0.980526539602061
0.4934467233616808,0.9796692510740426
0.5071535767883941,0.9805857247114034
0.5208604302151075,0.9841195667665362
0.5345672836418208,0.98720811604379
0.5482741370685342,0.9911005796812963
0.5619809904952475,0.9946760696605731
0.5756878439219609,0.9997004323744388
0.5893946973486743,1.0059050812619146
0.6031015507753876,1.010125820672539
0.616808404202101,1.0138263102492968
0.6305152576288143,1.017040976830656
0.6442221110555277,1.01843332803853
0.657928964482241,1.0201488445163422
0.6716358179089544,1.0190073488042997
0.6853426713356677,1.0181682043779752
0.6990495247623811,1.0166344721548475
0.7127563781890944,1.0146988904725076
0.7264632316158078,1.0106507655625567
0.7401700850425212,1.00549877546837
0.7538769384692345,1.0020058482219851
0.7675837918959479,0.9974972550629134
0.7812906453226612,0.9938074524719418
0.7949974987493746,0.9895912152945472
0.8087043521760879,0.9873993965038291
0.8224112056028013,0.9856143323163685
0.8361180590295146,0.9851219362961553
0.849824912456228,0.9851942272424326
0.8635317658829413,0.9863864953857703
0.8772386193096547,0.988524961912382
0.8909454727363681,0.9908539396357873
0.9046523261630814,0.9950660352499671
0.9183591795897948,0.9995901589136285
0.9320660330165081,1.0033062655351812
0.9457728864432215,1.007040482595897
0.9594797398699348,1.010653556268093
0.9731865932966483,1.0142573061843485
0.9868934467233615,1.0177103861237071
1.000600300150075,1.0192171529873488
1.0143071535767882,1.019011405223948
1.0280140070035018,1.0186410006039879
1.041720860430215,1.017816956171424
1.0554277138569284,1.0157678461209434
1.0691345672836416,1.0115460790971067
1.0828414207103552,1.007164820331261
1.0965482741370685,1.0034742746225394
1.1102551275637818,0.9991583333377071
1.123961980990495,0.9932101497723611
1.1376688344172086,0.9894268994312123
1.1513756878439219,0.9851289679241164
1.1650825412706352,0.9835396797328313
1.1787893946973487,0.9802660992670783
1.192496248124062,0.9798101732855655
1.2062031015507753,0.9801975499297068
1.2199099549774886,0.9810144440417384
1.233616808404202,0.983300793661665
1.2473236618309154,0.986935601883547
1.2610305152576287,0.9887989425921558
1.274737368684342,0.9932158031234043
1.2884442221110555,0.9972768307143997
1.3021510755377688,1.0015323131355658
1.315857928964482,1.0059423631514832
1.3295647823911956,1.0098138848842486
1.3432716358179089,1.0133987292670847
1.3569784892446222,1.015177148310418
1.3706853426713355,1.0146214721958706
1.384392196098049,1.0159843898337761
1.3980990495247623,1.0147500285953732
1.4118059029514756,1.0130488777032631
1.4255127563781889,1.0103466823260498
1.4392196098049024,1.0057024297643036
1.4529264632316157,1.001352474153193
1.466633316658329,0.9976855699218495
1.4803401700850425,0.9945033900887187
1.4940470235117558,0.9896039548116442
1.507753876938469,0.987185373085973
1.5214607303651824,0.9840447253573071
1.5351675837918959,0.9819585680549827
1.5488744372186092,0.9810387763698543
1.5625812906453225,0.98218106017873
1.5762881440720358,0.984081244819339
1.5899949974987493,0.9871809098938319
1.6037018509254626,0.9887083772666063
1.6174087043521759,0.9925489763009316
1.6311155577788894,0.9972138560523305
1.6448224112056027,1.0019312456095342
1.658529264632316,1.0066091475600567
1.6722361180590293,1.0112510951568836
1.6859429714857428,1.0142738753024052
1.699649824912456,1.017795662250574
1.7133566783391694,1.0206838988007518
1.7270635317658827,1.0213411196625277
1.7407703851925962,1.0213197298101246
1.7544772386193095,1.0202509610627393
1.7681840920460228,1.0176249554325782
1.7818909454727363,1.0157196489633786
1.7955977988994496,1.0110855270948171
1.8093046523261629,1.0073514782976765
1.8230115057528762,1.00234685897558
1.8367183591795897,0.9985131246401816
1.850425212606303,0.9935819987585067
1.8641320660330163,0.9897291918481133
1.8778389194597296,0.9865178572413302
1.891545772886443,0.9850565321933195
1.9052526263131564,0.983645482363759
1.9189594797398697,0.9832946052547001
1.9326663331665832,0.9845435575817356
1.9463731865932965,0.9871278638233719
1.9600800400200098,0.9897463762926039
1.973786893446723,0.9923747221512684
1.9874937468734366,0.9959203912898205
2.00120060030015,1.0011559519803874
2.014907453726863,1.0049712923971679
2.0286143071535765,1.009135148137685
2.04232116058029,1.0117885676126732
2.0560280140070035,1.0146253146459479
2.069734867433717,1.0170650753880586
2.08344172086043,1.0166375498595475
2.0971485742871434,1.017072269130799
2.1108554277138567,1.0148519470537258
2.12456228114057,1.0135364858256317
2.1382691345672833,1.009916076566142
2.1519759879939966,1.0063239288737065
2.1656828414207103,1.0011379310319037
2.1793896948474236,0.9965806278571897
2.193096548274137,0.9929787375860253
2.20680340170085,0.9874715279830467
2.2205102551275635,0.9850015474082706
2.234217108554277,0.9827366025359913
2.24792396198099,0.9796460179743568
2.261630815407704,0.9788157128039854
2.275337668834417,0.977524857224419
2.2890445222611304,0.9796498055159322
2.3027513756878437,0.9819855376020057
2.316458229114557,0.985568865138489
2.3301650825412703,0.9900835202830494
2.3438719359679836,0.9937827028653022
2.3575787893946973,0.997943431534829
2.3712856428214106,1.0028608569609967
2.384992496248124,1.00702917831726
2.3986993496748372,1.0113866672239928
2.4124062031015505,1.0131528277405963
2.426113056528264,1.015862093085095
2.439819909954977,1.0172161402240225
2.4535267633816904,1.0175727241360761
2.467233616808404,1.0156979876939913
2.4809404702351174,1.013455698036146
2.4946473236618307,1.0119486080867859
2.508354177088544,1.0079820257769525
2.5220610305152573,1.0041297463312027
2.5357678839419706,1.0001353294119486
2.549474737368684,0.9957919125873519
2.5631815907953976,0.9913730221917493
2.576888444222111,0.9882855100147891
2.5905952976488242,0.9868213727508414
2.6043021510755375,0.9838946942591492
2.618009004502251,0.9829021918996987
2.631715857928964,0.9842046941556843
2.6454227113556774,0.9847501999615877
2.659129564782391,0.9878739755343041
2.6728364182091044,0.9909379563683591
2.6865432716358177,0.9938828298690155
2.700250125062531,0.9989461390555687
2.7139569784892443,1.0046133376270772
2.7276638319159576,1.0089275906905
2.741370685342671,1.0115975505743782
2.755077538769384,1.0157830889623845
2.768784392196098,1.0176461538143402
2.7824912456228112,1.0204637888131474
2.7961980990495245,1.0215193367533884
2.809904952476238,1.020757315733916
2.823611805902951,1.0202421602384801
2.8373186593296644,1.0174900217053826
2.8510255127563777,1.0149922955423483
2.8647323661830915,1.0102758399836669
2.8784392196098048,1.0058977042361248
2.892146073036518,1.0006151949209705
2.9058529264632313,0.9966341855669835
2.9195597798899446,0.9917270247632424
2.933266633316658,0.9879716674335061
2.9469734867433712,0.9864640801749631
2.960680340170085,0.9826956128298748
2.9743871935967983,0.9821614346531007
2.9880940470235116,0.9823096627705029
3.001800900450225,0.9834877837411349
3.015507753876938,0.9846584506818449
3.0292146073036514,0.9885454477528675
3.0429214607303647,0.9908513577372994
3.056628314157078,0.9956650099872895
3.0703351675837918,0.9995701579642737
3.084042021010505,1.0028217873309415
3.0977488744372184,1.0071697393440828
3.1114557278639317,1.010234231965911
3.125162581290645,1.0133129467534316
3.1388694347173582,1.0134951369518
3.1525762881440715,1.0163052696195158
3.1662831415707853,1.0153986166436
3.1799899949974986,1.0137571854050105
3.193696848424212,1.0109949378491947
3.207403701850925,1.0076321497332166
3.2211105552776385,1.0055321791968665
3.2348174087043517,1.000381821923363
3.248524262131065,0.9972734417292306
3.262231115557779,0.9913082301984731
3.275937968984492,0.9875272298866546
3.2896448224112054,0.9844100119692784
3.3033516758379187,0.9816291097069922
3.317058529264632,0.9805231025844081
3.3307653826913453,0.9788310851562534
3.3444722361180586,0.9796263151808662
3.358179089544772,0.9806679690234865
3.3718859429714856,0.9840800678393492
3.385592796398199,0.9860651019071657
3.399299649824912,0.989544891952857
3.4130065032516255,0.9940156864500402
3.4267133566783388,0.9995971606876877
3.440420210105052,1.0044702969450843
3.4541270635317654,1.0081922223742348
3.467833916958479,1.0115587443286194
3.4815407703851924,1.015285542453401
3.4952476238119057,1.0173082404560518
3.508954477238619,1.0186259202073087
3.5226613306653323,1.0192267827434343
3.5363681840920456,1.018550871191983
3.550075037518759,1.0160067155753
3.5637818909454726,1.0130885823180993
3.577488744372186,1.0096861346910342
3.591195597798899,1.006112955155265
3.6049024512256125,1.002436491159228
3.6186093046523258,0.9974430414724899
3.632316158079039,0.9942560734551946
3.6460230115057524,0.990508719434717
3.659729864932466,0.9875443030398852
3.6734367183591794,0.9858483363048735
3.6871435717858927,0.9853245758357463
3.700850425212606,0.9846483472342075
3.7145572786393193,0.9858859573639759
3.7282641320660326,0.9880469516972846
3.741970985492746,0.9913752680775346
3.755677838919459,0.9940847894391346
3.769384692346173,0.9977659028492042
3.783091545772886,1.0028501066235869
3.7967983991995995,1.0072076539366899
3.810505252626313,1.0111230663335677
3.824212106053026,1.013715958438284
3.8379189594797394,1.0167886375922743
3.8516258129064527,1.019393301541864
3.8653326663331664,1.0198070427108281
3.8790395197598797,1.0197176873035867
3.892746373186593,1.0183118939108868
3.9064532266133063,1.0155608566151633
3.9201600800400196,1.011975203565196
3.933866933466733,1.008849032292155
3.947573786893446,1.003450380466958
3.96128064032016,1.0037581496358272
3.974987493746873,0.9942307496118616
3.9886943471735865,0.9915514986904713
4.0024012006003,0.9856806829472083
4.016108054027013,0.9839204296758467
4.029814907453726,0.9811285306164124
4.04352176088044,0.9811846982978859
4.057228614307153,0.9808354980158888
4.070935467733866,0.9807089706520407
4.08464232116058,0.982624206849913
4.098349174587293,0.9857555648947616
4.112056028014007,0.9885126054516765
4.12576288144072,0.9942738104967895
4.139469734867434,0.997550464688658
4.153176588294147,1.0013646061370225
4.16688344172086,1.0049794307600748
4.1805902951475735,1.0093412195929157
4.194297148574287,1.0120848932552133
4.208004002001,1.0140710289007517
4.221710855427713,1.0151473370605781
4.235417708854427,1.0143697231221267
4.24912456228114,1.0125187451004258
4.262831415707853,1.0102381980103852
4.276538269134567,1.0089777755268474
4.29024512256128,1.0056930979205942
4.303951975987993,1.0013685622500026
4.317658829414707,0.9974972664404537
4.331365682841421,0.9935110885644894
4.345072536268134,0.9899179883439813
4.358779389694847,0.9866627979556707
4.3724862431215605,0.9833269353575175
4.386193096548274,0.9823175849391477
4.399899949974987,0.9801307380819333
4.4136068034017,0.9804901696932067
4.427313656828414,0.9823796734727898
4.441020510255127,0.9853676551588091
4.45472736368184,0.9901810905904946
4.468434217108554,0.992974259170496
4.482141070535267,0.9973142378896771
4.49584792396198,1.0011052157710492
4.5095547773886935,1.0054673272262749
4.523261630815408,1.0103098706768803
4.536968484242121,1.0141083648001323
4.550675337668834,1.0174120333658063
4.5643821910955475,1.018205967331718
4.578089044522261,1.0200665060286254
4.591795897948974,1.0203719655713859
4.605502751375687,1.019537403220997
4.619209604802401,1.0172192686910582
4.632916458229114,1.0148716288983433
4.646623311655827,1.0104624120670336
4.660330165082541,1.0066702599412374
4.674037018509254,1.0026244009854524
4.687743871935967,0.9982838256663449
4.7014507253626805,0.9936967031120482
4.715157578789395,0.9905805534497821
4.728864432216108,0.9879960465050175
4.742571285642821,0.9848628632158305
4.756278139069535,0.9854269676883392
4.769984992496248,0.984945451838835
4.783691845922961,0.9859077606199551
4.7973986993496744,0.9882083774070891
4.811105552776388,0.9893596445577783
4.824812406203101,0.9935299466555424
4.838519259629814,0.9974744967728922
4.852226113056528,1.0008108389957584
4.865932966483241,1.0053845883376964
4.879639819909954,1.0100758353002517
4.8933466733366675,1.0123402213407826
4.907053526763381,1.0151886515293223
4.920760380190095,1.0172228742487528
4.934467233616808,1.0180650498682091
4.948174087043522,1.0176389604004397
4.961880940470235,1.0166409783949548
4.975587793896948,1.013097621944106
4.9892946473236615,1.0103631843092744
5.003001500750375,1.00667138523787
5.016708354177088,1.0029375298913512
5.030415207603801,0.9980183381198078
5.044122061030515,0.9933004720121941
5.057828914457228,0.9879070084852624
5.071535767883941,0.9850525183577934
5.0852426213106545,0.9810036743355522
5.098949474737368,0.9786304354570542
5.112656328164081,0.9795872503232609
5.126363181590795,0.9786233419367312
5.140070035017509,0.9810317895064079
5.153776888444222,0.9822230260965185
5.167483741870935,0.984764234926899
5.1811905952976485,0.9884156410913407
5.194897448724362,0.9932874087840383
5.208604302151075,0.9975956505737806
5.222311155577788,1.0020775795030246
5.236018009004502,1.0066125507981152
5.249724862431215,1.0111984860914371
5.263431715857928,1.0116470651653944
5.2771385692846415,1.0141324491001984
5.290845422711355,1.016661711677716
5.304552276138068,1.0167354900815568
5.318259129564782,1.014848311837423
5.331965982991496,1.0132544498085394
5.345672836418209,1.0111356786788817
5.359379689844922,1.0079022790182999
5.3730865432716355,1.003600319648144
5.386793396698349,0.9996226484155407
5.400500250125062,0.994548354813562
5.414207103551775,0.9918961218804443
5.427913956978489,0.9880652331815569
5.441620810405202,0.9846740851139573
5.455327663831915,0.9839202945133702
5.4690345172586285,0.9834594115307229
5.482741370685342,0.9845629469966505
5.496448224112055,0.9849728317786537
5.510155077538768,0.9873048691083126
5.523861930965483,0.9905136939052139
5.537568784392196,0.9940628166844122
5.551275637818909,0.9985959239169706
5.5649824912456225,1.0037123888417894
5.578689344672336,1.0077078202026588
5.592396198099049,1.0119036197771085
5.606103051525762,1.0159142241891324
5.619809904952476,1.0193532977290074
5.633516758379189,1.0199559297369578
5.647223611805902,1.020839865844858
5.660930465232616,1.0213845530554333
5.674637318659329,1.0203165387980735
5.688344172086042,1.0171605673182238
5.7020510255127554,1.0146578667264543
5.71575787893947,1.0107980485831038
5.729464732366183,1.0064288000184138
5.743171585792896,1.002477867088882
5.7568784392196095,0.9967311124586478
5.770585292646323,0.9928812382488977
5.784292146073036,0.9890420950111549
5.797998999499749,0.9861771096983055
5.811705852926463,0.9840741472419622
5.825412706353176,0.9825825029888148
5.839119559779889,0.9816354062054475
5.852826413206603,0.9839245914305638
5.866533266633316,0.984758625055942
5.880240120060029,0.9875075007954284
5.8939469734867425,0.9913638668975722
5.907653826913456,0.9959688536805377
5.92136068034017,0.9978253023014403
5.935067533766883,1.0022637221751842
5.9487743871935965,1.0087607597306039
5.96248124062031,1.010211825706517
5.976188094047023,1.0144425608148764
5.989894947473736,1.0136716594366015
6.00360180090045,1.0168228062303108
6.017308654327163,1.0160224946105134
6.031015507753876,1.015396689776493
6.04472236118059,1.01144993586777
6.058429214607303,1.0076949257159153
6.072136068034016,1.004736946078935
6.0858429214607295,1.0014001138824922
6.099549774887443,0.9966178195303352
6.113256628314156,0.9913157874202616
6.12696348174087,0.9872646905477129
6.1406703351675835,0.9855029347193438
6.154377188594297,0.9815892432640628
6.16808404202101,0.980429527661107
6.181790895447723,0.9789466579338947
6.195497748874437,0.9785892839894094
6.20920460230115,0.9810353364129134
6.222911455727863,0.9832658830799378
6.236618309154577,0.9864069700132801
6.25032516258129,0.9902814919290834
6.264032016008003,0.9930994457172162
6.2777388694347165,0.9978247151442237
6.29144572286143,1.0029657432029575
6.305152576288143,1.0071022650416255
6.318859429714857,1.0110154023660214
6.3325662831415706,1.0157024778894914
6.346273136568284,1.0158078685271323
6.359979989994997,1.0181143129189107
6.37368684342171,1.0192243087402648
6.387393696848424,1.016512213669546
6.401100550275137,1.0140418567195664
6.41480740370185,1.0131055128333966
6.428514257128564,1.0089035566405544
6.442221110555277,1.0050163553822324
6.45592796398199,1.0020175079616047
6.4696348174087035,0.9976032455775522
6.483341670835417,0.9930733156602823
6.49704852426213,0.9886783798617731
6.510755377688843,0.988036680480474
6.524462231115558,0.9847040946873651
6.538169084542271,0.9843976168848013
6.551875937968984,0.9847970742610818
6.5655827913956974,0.9868342759348132
6.579289644822411,0.9890695772923981
6.592996498249124,0.9904984932148462
6.606703351675837,0.9955627682020728
6.620410205102551,0.999185885972352
6.634117058529264,1.0029989451974448
6.647823911955977,1.0082093266847978
6.6615307653826905,1.0103185193528543
6.675237618809404,1.0142630366524603
6.688944472236117,1.017542072627457
6.70265132566283,1.0195493026572464
6.716358179089544,1.0196295535273565
6.730065032516258,1.0198992915487108
6.743771885942971,1.019472320869634
6.7574787393696845,1.0164679242975398
6.771185592796398,1.0133088367237058
6.784892446223111,1.0094144117965553
6.798599299649824,1.0052975415827883
6.812306153076538,1.0006091219420548
6.826013006503251,0.996652189405049
6.839719859929964,0.991493272490734
6.8534267133566775,0.9875132152369461
6.867133566783391,0.9834952710743035
6.880840420210104,0.9817498995824183
6.894547273636817,0.9808721713515147
6.908254127063531,0.9801565061438277
6.921960980490245,0.9816770900174441
6.935667833916958,0.9817815213457989
6.9493746873436715,0.9867501001708925
6.963081540770385,0.9879896879570519
6.976788394197098,0.9941475735887104
6.990495247623811,0.9973766985992425
7.004202101050525,1.0016065237995586
7.017908954477238,1.005677168603574
7.031615807903951,1.0084268082606058
7.0453226613306645,1.0119810423833608
7.059029514757378,1.0147863925841647
7.072736368184091,1.0145737791751634
7.086443221610804,1.0146818671464062
7.100150075037518,1.0142850522506948
7.113856928464231,1.0124620092433014
7.127563781890945,1.0090243382061614
7.1412706353176585,1.0054346658381699
7.154977488744372,1.000747492865961
7.168684342171085,0.9967573603976831
7.182391195597798,0.9937543114034423
7.196098049024512,0.9884863323190453
7.209804902451225,0.9858703332358213
7.223511755877938,0.9830606119208157
7.2372186093046516,0.9810548814722698
7.250925462731365,0.9797767141736732
7.264632316158078,0.9810702172289614
7.278339169584791,0.980676319958772
7.292046023011505,0.9849287481132721
7.305752876438218,0.9877805077694961
7.319459729864932,0.9929953834967704
7.3331665832916455,0.9956211570397107
7.346873436718359,1.0002518162361147
