time,flux
0.0,0.9952784929097306
0.013706853426713355,0.9870082145502898
0.02741370685342671,0.983609440382009
0.041120560280140064,0.9784086809402557
0.05482741370685342,0.9749105742795777
0.06853426713356678,0.9736274807687746
0.08224112056028013,0.9733730375681972
0.09594797398699349,0.9744615149805241
0.10965482741370684,0.9766142403054111
0.1233616808404202,0.9797191445257736
0.13706853426713356,0.9842113680939345
0.1507753876938469,0.9899973085180123
0.16448224112056026,0.9970095014795175
0.1781890945472736,1.0021535365347867
0.19189594797398699,1.0081941543734019
0.20560280140070034,1.013684093814759
0.21930965482741369,1.0198001249886204
0.23301650825412704,1.0234687254973323
0.2467233616808404,1.0231886294672667
0.26043021510755376,1.0265330074724608
0.2741370685342671,1.0266429784520241
0.28784392196098046,1.025950937316892
0.3015507753876938,1.0215795241685826
0.31525762881440716,1.0187682234628963
0.3289644822411205,1.0126214015952788
0.34267133566783387,1.0084116005666008
0.3563781890945472,1.0010543901153734
0.3700850425212606,0.9962990715048631
0.38379189594797397,0.9898566566112413
0.3974987493746873,0.9825971882599972
0.41120560280140067,0.9798433979769154
0.424912456228114,0.9756841334916827
0.43861930965482737,0.9753829078473636
0.4523261630815407,0.9724167289021738
0.46603301650825407,0.974036131190588
0.4797398699349674,0.9760701959227661
0.4934467233616808,0.9791448801945448
0.5071535767883941,0.983111963989399
0.5208604302151075,0.9878599886168777
0.5345672836418208,0.9934584613161911
0.5482741370685342,1.0020343093820012
0.5619809904952475,1.0060282907007296
0.5756878439219609,1.0120395226435601
0.5893946973486743,1.0163042508648792
0.6031015507753876,1.0218142676882171
0.616808404202101,1.025622137567273
0.6305152576288143,1.025745460071422
0.6442221110555277,1.0262229859625267
0.657928964482241,1.0261365246928846
0.6716358179089544,1.0230682939681426
0.6853426713356677,1.0186993521821892
0.6990495247623811,1.0131890735141345
0.7127563781890944,1.008088821730309
0.7264632316158078,1.00360389017326
0.7401700850425212,0.9964625010809701
0.7538769384692345,0.9912617211833326
0.7675837918959479,0.9853187245655562
0.7812906453226612,0.9811487318269947
0.7949974987493746,0.9765678741881303
0.8087043521760879,0.9737127269803761
0.8224112056028013,0.9737580440150655
0.8361180590295146,0.973867051465303
0.849824912456228,0.9747488637253559
0.8635317658829413,0.977753488256299
0.8772386193096547,0.9808186563978983
0.8909454727363681,0.9866685204454522
0.9046523261630814,0.9914320746898703
0.9183591795897948,0.9982550923003969
0.9320660330165081,1.0055248354452262
0.9457728864432215,1.0114003488968355
0.9594797398699348,1.0146309977416401
0.9731865932966483,1.020275254177166
0.9868934467233615,1.0237989866102075
1.000600300150075,1.0257048079158972
1.0143071535767882,1.0275380600423372
1.0280140070035018,1.0254812918574854
1.041720860430215,1.024767503953503
1.0554277138569284,1.020756391509646
1.0691345672836416,1.0144452065114595
1.0828414207103552,1.010355251950511
1.0965482741370685,1.006245730410024
1.1102551275637818,0.9975244095440411
1.123961980990495,0.9924010177409519
1.1376688344172086,0.9854838040075802
1.1513756878439219,0.9814619609225026
1.1650825412706352,0.977137881510297
1.1787893946973487,0.976642247599381
1.192496248124062,0.9734676503444921
1.2062031015507753,0.9712658899209046
1.2199099549774886,0.974996774901137
1.233616808404202,0.9763863564225961
1.2473236618309154,0.9812267936648804
1.2610305152576287,0.984850335599789
1.274737368684342,0.9910529877536727
1.2884442221110555,0.9980492779882799
1.3021510755377688,1.0019484226451645
1.315857928964482,1.0092838415466454
1.3295647823911956,1.0143949452723418
1.3432716358179089,1.0191745374264372
1.3569784892446222,1.0211751788070982
1.3706853426713355,1.0242381568144876
1.384392196098049,1.024854040242974
1.3980990495247623,1.0251493417858257
1.4118059029514756,1.023833410768073
1.4255127563781889,1.0217889293171947
1.4392196098049024,1.0185253947404331
1.4529264632316157,1.0131857674931202
1.466633316658329,1.0073348252644443
1.4803401700850425,1.000139905424603
1.4940470235117558,0.9955501880038478
1.507753876938469,0.987714227812387
1.5214607303651824,0.9828445289947058
1.5351675837918959,0.9797636542458665
1.5488744372186092,0.9766667336952906
1.5625812906453225,0.9726509889370846
1.5762881440720358,0.972840897809141
1.5899949974987493,0.9736462920024422
1.6037018509254626,0.9760333081182899
1.6174087043521759,0.9793451971159846
1.6311155577788894,0.9834157394005569
1.6448224112056027,0.9911341850985451
1.658529264632316,0.9949816841525794
1.6722361180590293,1.0016695563770421
1.6859429714857428,1.0071818621658983
1.699649824912456,1.0132224836638102
1.7133566783391694,1.0184379148653908
1.7270635317658827,1.021791692918375
1.7407703851925962,1.0252663959792692
1.7544772386193095,1.0256329899531662
1.7681840920460228,1.029032212233395
1.7818909454727363,1.0256503215134851
1.7955977988994496,1.0219253182959633
1.8093046523261629,1.0179572897130411
1.8230115057528762,1.0136655131350651
1.8367183591795897,1.00820019960366
1.850425212606303,1.0026221243166444
1.8641320660330163,0.9955201408849857
1.8778389194597296,0.9904872606373877
1.891545772886443,0.985699767182411
1.9052526263131564,0.9803264024536873
1.9189594797398697,0.976796297252578
1.9326663331665832,0.9736008962402809
1.9463731865932965,0.972573159788084
1.9600800400200098,0.9747070080314848
1.973786893446723,0.9767777713783765
1.9874937468734366,0.9779246919745253
2.00120060030015,0.9812086676501076
2.014907453726863,0.9881288789969378
2.0286143071535765,0.994909954640124
2.04232116058029,0.9993382907957633
2.0560280140070035,1.0076783069425896
2.069734867433717,1.0108945442694734
2.08344172086043,1.0158735998257604
2.0971485742871434,1.0220956582199654
2.1108554277138567,1.025376993505897
2.12456228114057,1.0268825489425684
2.1382691345672833,1.0263646181362267
2.1519759879939966,1.0244325686072364
2.1656828414207103,1.02473128958357
2.1793896948474236,1.020202633854345
2.193096548274137,1.0151711135871961
2.20680340170085,1.0093727338363327
2.2205102551275635,1.0031365667286551
2.234217108554277,0.9977357687479819
2.24792396198099,0.9911753073012366
2.261630815407704,0.9857533528891179
2.275337668834417,0.9813298613663876
2.2890445222611304,0.9768926769703015
2.3027513756878437,0.9748357240443193
2.316458229114557,0.9750576386885859
2.3301650825412703,0.9727642599991628
2.3438719359679836,0.9748325002083044
2.3575787893946973,0.9758913255609245
2.3712856428214106,0.9800639114358679
2.384992496248124,0.9872351573133406
2.3986993496748372,0.9900401477519607
2.4124062031015505,0.9996312661068458
2.426113056528264,1.0046550640836212
2.439819909954977,1.0088922329983445
2.4535267633816904,1.0138986887010613
2.467233616808404,1.0212456866705786
2.4809404702351174,1.0236690595354108
2.4946473236618307,1.0266083045645278
2.508354177088544,1.0261712064718793
2.5220610305152573,1.026500981418389
2.5357678839419706,1.0224404574879578
2.549474737368684,1.021146729210255
2.5631815907953976,1.0172175509481758
2.576888444222111,1.009523282922305
2.5905952976488242,1.0049588504964337
2.6043021510755375,0.9988961711803507
2.618009004502251,0.9926631983734019
2.631715857928964,0.9877961380857306
2.6454227113556774,0.9837430081436176
2.659129564782391,0.9800496326776238
2.6728364182091044,0.975118040818785
2.6865432716358177,0.9731520601494472
2.700250125062531,0.9741229184336911
2.7139569784892443,0.9736286010157924
2.7276638319159576,0.977009942281615
2.741370685342671,0.9797401499781441
2.755077538769384,0.9851846260695474
2.768784392196098,0.9899782363367076
2.7824912456228112,0.9958253659673088
2.7961980990495245,1.0026057248277758
2.809904952476238,1.0079380133003462
2.823611805902951,1.0131594536547688
2.8373186593296644,1.0190197845703473
2.8510255127563777,1.022673907243817
2.8647323661830915,1.0251505981568994
2.8784392196098048,1.0274991407773746
2.892146073036518,1.0285980846456373
2.9058529264632313,1.0241321728696657
2.9195597798899446,1.022347255599333
2.933266633316658,1.0184608258411683
2.9469734867433712,1.01320875520084
2.960680340170085,1.0070243996010226
2.9743871935967983,1.0005088869864516
2.9880940470235116,0.9957648651436176
3.001800900450225,0.990491556289164
3.015507753876938,0.9823133509348718
3.0292146073036514,0.9778367700358422
3.0429214607303647,0.9757606002907147
3.056628314157078,0.9734740082354064
3.0703351675837918,0.9740210215978533
3.084042021010505,0.9738509717588211
3.0977488744372184,0.9744979306613325
3.1114557278639317,0.9791717400013679
3.125162581290645,0.9827718022647811
3.1388694347173582,0.9884361756762027
3.1525762881440715,0.9945581535809485
3.1662831415707853,1.0009227558997742
3.1799899949974986,1.0077084661066178
3.193696848424212,1.013077060688654
3.207403701850925,1.01759003951401
3.2211105552776385,1.0212897674695027
3.2348174087043517,1.0252946180122375
3.248524262131065,1.0247255297560347
3.262231115557779,1.0262561418153389
3.275937968984492,1.0259210724111096
3.2896448224112054,1.0223585757966656
3.3033516758379187,1.0198628609722045
3.317058529264632,1.0127185861591257
3.3307653826913453,1.0083838382264367
3.3444722361180586,1.0023229182792275
3.358179089544772,0.9955221315752577
3.3718859429714856,0.9902162004725323
3.385592796398199,0.9843260081457066
3.399299649824912,0.9816422758742215
3.4130065032516255,0.9767388607662228
3.4267133566783388,0.9757411968497509
3.440420210105052,0.9730391403846369
3.4541270635317654,0.9750206475705033
3.467833916958479,0.9764048882088544
3.4815407703851924,0.9802923124940974
3.4952476238119057,0.9829310027681841
3.508954477238619,0.9874053879677303
3.5226613306653323,0.9926060212866987
3.5363681840920456,1.0006039237802158
3.550075037518759,1.0057045478297597
3.5637818909454726,1.011653252316185
3.577488744372186,1.016112886292418
3.591195597798899,1.0212663567932139
3.6049024512256125,1.0243020556496358
3.6186093046523258,1.0257843872605066
3.632316158079039,1.0257885926866064
3.6460230115057524,1.0266443390793434
3.659729864932466,1.0236773823371363
3.6734367183591794,1.019615405847025
3.6871435717858927,1.016312838744558
3.700850425212606,1.0103632683844477
3.7145572786393193,1.004753061412847
3.7282641320660326,0.9996527969059427
3.741970985492746,0.9940060454376883
3.755677838919459,0.9867141352939308
3.769384692346173,0.9809960650758504
3.783091545772886,0.9770550543377142
3.7967983991995995,0.9752496030072888
3.810505252626313,0.9723749214422107
3.824212106053026,0.9742312453880825
3.8379189594797394,0.9743382048144896
3.8516258129064527,0.9781696681556411
3.8653326663331664,0.9809702176341478
3.8790395197598797,0.9848546029080397
3.892746373186593,0.9908092707093596
3.9064532266133063,0.9974265519544007
3.9201600800400196,1.002372041111915
3.933866933466733,1.0091011422817204
3.947573786893446,1.01539516082407
3.96128064032016,1.0189016929413068
3.974987493746873,1.0232507685029986
3.9886943471735865,1.0240522085370858
4.0024012006003,1.0278011652367776
4.016108054027013,1.0265957304132955
4.029814907453726,1.0241133256299022
4.04352176088044,1.0212695439782962
4.057228614307153,1.0171729046041504
4.070935467733866,1.0133769278926834
4.08464232116058,1.0074441312983278
4.098349174587293,0.9999554949902467
4.112056028014007,0.995341072160477
4.12576288144072,0.989295625725959
4.139469734867434,0.9822231685967705
4.153176588294147,0.9772362814636864
4.16688344172086,0.9761628842922548
4.1805902951475735,0.9763188300693896
4.194297148574287,0.9742604829604278
4.208004002001,0.9741340213715115
4.221710855427713,0.9758733676726964
4.235417708854427,0.9805475278780612
4.24912456228114,0.9862812166513957
4.262831415707853,0.990311326606006
4.276538269134567,0.9950217954316947
4.29024512256128,1.0016107558562957
4.303951975987993,1.0073841031735018
4.317658829414707,1.0133974731359598
4.331365682841421,1.0194942448155602
4.345072536268134,1.0233062070463412
4.358779389694847,1.0257918818456349
4.3724862431215605,1.026470764027112
4.386193096548274,1.0281152956338564
4.399899949974987,1.0246516901094576
4.4136068034017,1.02134715234797
4.427313656828414,1.0174109468451498
4.441020510255127,1.0139168917999815
4.45472736368184,1.0088764181008243
4.468434217108554,1.002096746017319
4.482141070535267,0.9956053825923795
4.49584792396198,0.9906050754591824
4.5095547773886935,0.9850155867990309
4.523261630815408,0.977912192163154
4.536968484242121,0.977769719028876
4.550675337668834,0.9741541974160588
4.5643821910955475,0.9728075106660691
4.578089044522261,0.9740095714758067
4.591795897948974,0.975219306504558
4.605502751375687,0.9770667325284149
4.619209604802401,0.983162953455895
4.632916458229114,0.9880557189252929
4.646623311655827,0.9942167354589484
4.660330165082541,1.0006921834206337
4.674037018509254,1.0065088849921509
4.687743871935967,1.0103708791063264
4.7014507253626805,1.0184703358057152
4.715157578789395,1.0210292761558195
4.728864432216108,1.0240316522839907
4.742571285642821,1.0260506841803632
4.756278139069535,1.0252046209979626
4.769984992496248,1.0256702461512797
4.783691845922961,1.0237794313451847
4.7973986993496744,1.0193138004274265
4.811105552776388,1.0156547291226452
4.824812406203101,1.0078718651631755
4.838519259629814,1.0050365756939519
4.852226113056528,0.9978600690844052
4.865932966483241,0.9914180712688012
4.879639819909954,0.985554237673102
4.8933466733366675,0.9810734515753397
4.907053526763381,0.9788311720051853
4.920760380190095,0.9748058315931005
4.934467233616808,0.9735479968877079
4.948174087043522,0.9734447992617882
4.961880940470235,0.9750194848066458
4.975587793896948,0.9787507469264602
4.9892946473236615,0.9792428762808397
5.003001500750375,0.9883618542362562
5.016708354177088,0.989029934070736
5.030415207603801,0.9975269096317303
5.044122061030515,1.005125123218679
5.057828914457228,1.0100775276371148
5.071535767883941,1.0152546912678344
5.0852426213106545,1.0208547747468977
5.098949474737368,1.0233826221471962
5.112656328164081,1.0262191645275183
5.126363181590795,1.0271612990156644
5.140070035017509,1.02778472949087
5.153776888444222,1.025953895714075
5.167483741870935,1.022581408803744
5.1811905952976485,1.0159587551852383
5.194897448724362,1.0120631000692681
5.208604302151075,1.0060873767665044
5.222311155577788,0.9987908272325944
5.236018009004502,0.9935857465145307
5.249724862431215,0.9876172874395259
5.263431715857928,0.9822759595003588
5.2771385692846415,0.9801240784103207
5.290845422711355,0.9750942350446907
5.304552276138068,0.9753828476925931
5.318259129564782,0.9727279909403513
5.331965982991496,0.9743376309025376
5.345672836418209,0.9776631028883849
5.359379689844922,0.9797888519457978
5.3730865432716355,0.9845832364060794
5.386793396698349,0.9906023914235028
5.400500250125062,0.9950767674304425
5.414207103551775,1.0024815629790171
5.427913956978489,1.0104362474776598
5.441620810405202,1.0143426080771152
5.455327663831915,1.0193002345740452
5.4690345172586285,1.0227412171797057
5.482741370685342,1.02513551160452
5.496448224112055,1.027797990500646
5.510155077538768,1.0259373010755257
5.523861930965483,1.0242752237768669
5.537568784392196,1.0215156172080968
5.551275637818909,1.018696910244975
5.5649824912456225,1.0129344372900169
5.578689344672336,1.0054034083775987
5.592396198099049,1.0011869930281547
5.606103051525762,0.9949568789858811
5.619809904952476,0.9867480741647313
5.633516758379189,0.9841354249814309
5.647223611805902,0.9787268564112909
5.660930465232616,0.9764039782147518
5.674637318659329,0.9749101104363121
5.688344172086042,0.9744237395579354
5.7020510255127554,0.9719784108814269
5.71575787893947,0.9776485481240884
5.729464732366183,0.9798620525079846
5.743171585792896,0.9834715702138342
5.7568784392196095,0.9909590132299886
5.770585292646323,0.9958914382242688
5.784292146073036,1.0010204687375643
5.797998999499749,1.0077546672493054
5.811705852926463,1.0116799648514194
5.825412706353176,1.0192907514290273
5.839119559779889,1.0228641704311083
5.852826413206603,1.023911153485018
5.866533266633316,1.0287228642112658
5.880240120060029,1.0243601657036476
5.8939469734867425,1.024957950450734
5.907653826913456,1.0226105283272249
5.92136068034017,1.0189710657870983
5.935067533766883,1.0138904630304515
5.9487743871935965,1.0078464697766134
5.96248124062031,1.0031784900555325
5.976188094047023,0.9966187542937364
5.989894947473736,0.9900801636309804
6.00360180090045,0.9842398474572815
6.017308654327163,0.9803593955059141
6.031015507753876,0.9768245767739278
6.04472236118059,0.9749055495514257
6.058429214607303,0.9729381832850765
6.072136068034016,0.9725803288835178
6.0858429214607295,0.9756798680358173
6.099549774887443,0.9798633589160771
6.113256628314156,0.9824003255711161
6.12696348174087,0.987386084869203
6.1406703351675835,0.9931565099492503
6.154377188594297,0.9999330832832044
6.16808404202101,1.0071239337045839
6.181790895447723,1.0112921900962901
6.195497748874437,1.0169677121080098
6.20920460230115,1.020726475595359
6.222911455727863,1.0240470071492753
6.236618309154577,1.0251467968309642
6.25032516258129,1.0258500798743666
6.264032016008003,1.0266202324100104
6.2777388694347165,1.0237278537950267
6.29144572286143,1.0207825890721913
6.305152576288143,1.0161767873992607
6.318859429714857,1.0101580810059467
6.3325662831415706,1.0048003567000339
6.346273136568284,0.9987386630043483
6.359979989994997,0.9930331264275507
6.37368684342171,0.985498460650139
6.387393696848424,0.9822140568348895
6.401100550275137,0.9757871703042998
6.41480740370185,0.9765604230020309
6.428514257128564,0.9731766997781031
6.442221110555277,0.9728960213338141
6.45592796398199,0.9749392014636555
6.4696348174087035,0.9777357317212274
6.483341670835417,0.9810378330093482
6.49704852426213,0.9868636871759331
6.510755377688843,0.9927651560223565
6.524462231115558,0.9977940441225382
6.538169084542271,1.0039052914389164
6.551875937968984,1.0107886344122987
6.5655827913956974,1.015825903800624
6.579289644822411,1.0201145219574261
6.592996498249124,1.0240969029058864
6.606703351675837,1.02512598205095
6.620410205102551,1.0266689187962803
6.634117058529264,1.0258776776041625
6.647823911955977,1.0253311161980623
6.6615307653826905,1.0211473114773075
6.675237618809404,1.0162937762440072
6.688944472236117,1.011896167339935
6.70265132566283,1.0038878645796583
6.716358179089544,1.0016624539323493
6.730065032516258,0.9944082940585743
6.743771885942971,0.9889447703329726
6.7574787393696845,0.983835051603432
6.771185592796398,0.9792749735960065
6.784892446223111,0.9769164190085401
6.798599299649824,0.9734387118351717
6.812306153076538,0.9735763428818377
6.826013006503251,0.9745953218865263
6.839719859929964,0.9773126419924105
6.8534267133566775,0.9811294030813954
6.867133566783391,0.9861958437825794
6.880840420210104,0.9918267055546031
6.894547273636817,0.9974478672984707
6.908254127063531,1.0015981194420218
6.921960980490245,1.0077685184520642
6.935667833916958,1.0136648026674078
6.9493746873436715,1.0197338982989974
6.963081540770385,1.0232234270720841
6.976788394197098,1.0257049676527272
6.990495247623811,1.0262045354448062
7.004202101050525,1.0246270870053051
7.017908954477238,1.0246682587979439
7.031615807903951,1.022043804558127
7.0453226613306645,1.0185410327918787
7.059029514757378,1.0147571418462142
7.072736368184091,1.0078702405042272
7.086443221610804,1.0019402866700233
7.100150075037518,0.996703181417529
7.113856928464231,0.9907814097382815
7.127563781890945,0.984321640653172
7.1412706353176585,0.9794781396457435
7.154977488744372,0.9764990184371705
7.168684342171085,0.9731939355791996
7.182391195597798,0.9734405173866811
7.196098049024512,0.9741760711249806
7.209804902451225,0.9745583011562496
7.223511755877938,0.979500721423146
7.2372186093046516,0.9829845509911788
7.250925462731365,0.9887324269823419
7.264632316158078,0.994140064611258
7.278339169584791,1.0008295207198685
7.292046023011505,1.006234971021933
7.305752876438218,1.012108841757993
7.319459729864932,1.0174912285612219
7.3331665832916455,1.0210336828204396
7.346873436718359,1.0239216058888316
