time,flux
0.0,1.011806235761461
0.013706853426713355,1.0106168532380424
0.02741370685342671,1.0066231287390883
0.041120560280140064,1.0032789685989307
0.05482741370685342,1.0010327006316548
0.06853426713356678,0.9971418501637063
0.08224112056028013,0.9932700187201727
0.09594797398699349,0.9891103632495511
0.10965482741370684,0.9844804181786374
0.1233616808404202,0.9800797470781893
0.13706853426713356,0.9754875734532495
0.1507753876938469,0.9706765168335592
0.16448224112056026,0.9681497725655428
0.1781890945472736,0.9653059794092027
0.19189594797398699,0.962653827703223
0.20560280140070034,0.9611277228748569
0.21930965482741369,0.9599073180685044
0.23301650825412704,0.9583251901824539
0.2467233616808404,0.9567867947419979
0.26043021510755376,0.9586949721511634
0.2741370685342671,0.9601877017126639
0.28784392196098046,0.9615317575693196
0.3015507753876938,0.9648659911999652
0.31525762881440716,0.9670565150819748
0.3289644822411205,0.9715461231142375
0.34267133566783387,0.9737681493594503
0.3563781890945472,0.9792012545045894
0.3700850425212606,0.9841538000423615
0.38379189594797397,0.9882821716522906
0.3974987493746873,0.9950526134964317
0.41120560280140067,0.9996906073868452
0.424912456228114,1.0029957357471935
0.43861930965482737,1.0074426895984954
0.4523261630815407,1.0122477561965122
0.46603301650825407,1.0143344179350509
0.4797398699349674,1.0197396085008616
0.4934467233616808,1.021687874869929
0.5071535767883941,1.025612739477294
0.5208604302151075,1.026928445066753
0.5345672836418208,1.0296736432941351
0.5482741370685342,1.0297126777760717
0.5619809904952475,1.0292950172079443
0.5756878439219609,1.0306470377700911
0.5893946973486743,1.0297122305207833
0.6031015507753876,1.0280566769913613
0.616808404202101,1.026476418969576
0.6305152576288143,1.023949130700727
0.6442221110555277,1.0229410927366764
0.657928964482241,1.0203016286018767
0.6716358179089544,1.0184643789228272
0.6853426713356677,1.0159115685952738
0.6990495247623811,1.0131738854198702
0.7127563781890944,1.011078306352334
0.7264632316158078,1.009480717846544
0.7401700850425212,1.0070544185464718
0.7538769384692345,1.005018219226651
0.7675837918959479,1.0039785517221138
0.7812906453226612,1.0036556730501511
0.7949974987493746,1.0020077561200855
0.8087043521760879,0.9996120250357683
0.8224112056028013,1.0024312397051758
0.8361180590295146,1.0039593354241902
0.849824912456228,1.0041043396142597
0.8635317658829413,1.0042038044975439
0.8772386193096547,1.0040279383557893
0.8909454727363681,1.0051039822853867
0.9046523261630814,1.0072863922944535
0.9183591795897948,1.0084291571234631
0.9320660330165081,1.0095576406287405
0.9457728864432215,1.0100961649049658
0.9594797398699348,1.01102928465139
0.9731865932966483,1.0108431207527624
0.9868934467233615,1.0123964971465065
1.000600300150075,1.011728378327905
1.0143071535767882,1.0120574802566193
1.0280140070035018,1.010982168203727
1.041720860430215,1.009797543197233
1.0554277138569284,1.0074824361896109
1.0691345672836416,1.0056808799559507
1.0828414207103552,1.0041984532599029
1.0965482741370685,1.000486405489689
1.1102551275637818,0.9975496273409701
1.123961980990495,0.9945663066545963
1.1376688344172086,0.9899038057638145
1.1513756878439219,0.9870280720373946
1.1650825412706352,0.9849904744290474
1.1787893946973487,0.9811108729707871
1.192496248124062,0.9767282634092749
1.2062031015507753,0.9745717998963567
1.2199099549774886,0.9706490518519352
1.233616808404202,0.9704331460106066
1.2473236618309154,0.9669801466977117
1.2610305152576287,0.9654951260001169
1.274737368684342,0.9658071056815791
1.2884442221110555,0.9649385876193347
1.3021510755377688,0.9665744492307665
1.315857928964482,0.9667143271452409
1.3295647823911956,0.9676189822055038
1.3432716358179089,0.9704363471049228
1.3569784892446222,0.973353455730792
1.3706853426713355,0.9758733050623126
1.384392196098049,0.9784278452209472
1.3980990495247623,0.9827963626083159
1.4118059029514756,0.9865596651703525
1.4255127563781889,0.9910260358531393
1.4392196098049024,0.9945521500954416
1.4529264632316157,0.999770274733781
1.466633316658329,1.0052144458512233
1.4803401700850425,1.009139641971832
1.4940470235117558,1.0115852807115997
1.507753876938469,1.0149389677797316
1.5214607303651824,1.0193994743234938
1.5351675837918959,1.0203304083999067
1.5488744372186092,1.0231061773293315
1.5625812906453225,1.0246871048226995
1.5762881440720358,1.0252235562174101
1.5899949974987493,1.02440994748567
1.6037018509254626,1.0254912313737787
1.6174087043521759,1.0238206012772708
1.6311155577788894,1.0232123641938915
1.6448224112056027,1.0203713942209325
1.658529264632316,1.0183780351003755
1.6722361180590293,1.017223232589957
1.6859429714857428,1.0128916875282319
1.699649824912456,1.0088704590902478
1.7133566783391694,1.0058256956099685
1.7270635317658827,1.004047012644366
1.7407703851925962,0.9992097001099278
1.7544772386193095,0.9980295971396775
1.7681840920460228,0.9940949355733015
1.7818909454727363,0.9930351498980369
1.7955977988994496,0.9909291637694077
1.8093046523261629,0.9874699700627488
1.8230115057528762,0.9865397236821398
1.8367183591795897,0.9864840291473154
1.850425212606303,0.9853559967288023
1.8641320660330163,0.9854064714136241
1.8778389194597296,0.9860750872554412
1.891545772886443,0.9879940376199077
1.9052526263131564,0.9884556328631205
1.9189594797398697,0.990456644450723
1.9326663331665832,0.9943960159886247
1.9463731865932965,0.9942800262510487
1.9600800400200098,0.9969368762825171
1.973786893446723,1.0006456648980642
1.9874937468734366,1.0036145320134193
2.00120060030015,1.0056429073963875
2.014907453726863,1.0086758442918267
2.0286143071535765,1.012049952746631
2.04232116058029,1.0151347522667713
2.0560280140070035,1.0160154153962706
2.069734867433717,1.0178790486319156
2.08344172086043,1.0191565433742402
2.0971485742871434,1.0200862520316694
2.1108554277138567,1.0204099990167566
2.12456228114057,1.0220602157007221
2.1382691345672833,1.0194624201843294
2.1519759879939966,1.0183650467886045
2.1656828414207103,1.0170912661262974
2.1793896948474236,1.0155951684765627
2.193096548274137,1.0120659522651776
2.20680340170085,1.0097860621986374
2.2205102551275635,1.00924324523188
2.234217108554277,1.0061801712069516
2.24792396198099,1.0019248822038564
2.261630815407704,1.001156125144322
2.275337668834417,0.9975539067316872
2.2890445222611304,0.9929321370459977
2.3027513756878437,0.9929392655243306
2.316458229114557,0.9897105680942371
2.3301650825412703,0.9902500353404856
2.3438719359679836,0.9874256355946295
2.3575787893946973,0.9870010752197976
2.3712856428214106,0.9859282689338912
2.384992496248124,0.9865644020558881
2.3986993496748372,0.9864555151744233
2.4124062031015505,0.9877141299935654
2.426113056528264,0.9874918702174389
2.439819909954977,0.9893253529438342
2.4535267633816904,0.9913863797660797
2.467233616808404,0.9927244995215577
2.4809404702351174,0.995028679852472
2.4946473236618307,0.9972410018132599
2.508354177088544,0.9988097524418045
2.5220610305152573,0.9997529850564186
2.5357678839419706,1.0015207080576083
2.549474737368684,1.0052565885988618
2.5631815907953976,1.0050486037096307
2.576888444222111,1.007277596503681
2.5905952976488242,1.0075504202096661
2.6043021510755375,1.00744085211082
2.618009004502251,1.0083568004202947
2.631715857928964,1.0072971023333788
2.6454227113556774,1.0068851330699848
2.659129564782391,1.0050648702762268
2.6728364182091044,1.0030276743311075
2.6865432716358177,1.0000760590562499
2.700250125062531,0.9979448021150775
2.7139569784892443,0.9952344171915677
2.7276638319159576,0.9929139477881797
2.741370685342671,0.989607915605722
2.755077538769384,0.9867708382578719
2.768784392196098,0.9827785753278246
2.7824912456228112,0.9805512855073025
2.7961980990495245,0.9776347017628012
2.809904952476238,0.9754234608763873
2.823611805902951,0.9736785366352309
2.8373186593296644,0.9714853652057649
2.8510255127563777,0.9715480563631226
2.8647323661830915,0.9700236931248032
2.8784392196098048,0.9707701529108708
2.892146073036518,0.9700657058865134
2.9058529264632313,0.9727639499250326
2.9195597798899446,0.9747220943508297
2.933266633316658,0.9761795563941162
2.9469734867433712,0.9803702714908877
2.960680340170085,0.9839374080116259
2.9743871935967983,0.9864481969647345
2.9880940470235116,0.992642447879073
3.001800900450225,0.9957240132881076
3.015507753876938,0.9999600104305515
3.0292146073036514,1.0042697176904034
3.0429214607303647,1.0102778654032094
3.056628314157078,1.0150400035361296
3.0703351675837918,1.019367237935902
3.084042021010505,1.0234444942832246
3.0977488744372184,1.0279447191754558
3.1114557278639317,1.0320774682523182
3.125162581290645,1.0327178330593927
3.1388694347173582,1.0357016864626927
3.1525762881440715,1.0385833427721227
3.1662831415707853,1.0394749353831536
3.1799899949974986,1.039073756018419
3.193696848424212,1.0407184817841397
3.207403701850925,1.0388556458930664
3.2211105552776385,1.0380479932143203
3.2348174087043517,1.0372118024204924
3.248524262131065,1.0334290347029074
3.262231115557779,1.0315574238438736
3.275937968984492,1.0277067836686822
3.2896448224112054,1.0244571322650606
3.3033516758379187,1.0202709938477448
3.317058529264632,1.0173152952398206
3.3307653826913453,1.013136950988647
3.3444722361180586,1.0092688543469182
3.358179089544772,1.0065114695224229
3.3718859429714856,1.0020982048410731
3.385592796398199,1.0004546237449654
3.399299649824912,0.9960779137080147
3.4130065032516255,0.9925102608161696
3.4267133566783388,0.9916828814834285
3.440420210105052,0.9889812795587983
3.4541270635317654,0.988448992997361
3.467833916958479,0.9868385087396682
3.4815407703851924,0.9855821107242353
3.4952476238119057,0.9861510957078514
3.508954477238619,0.987552999411511
3.5226613306653323,0.986901533345274
3.5363681840920456,0.9877746695696553
3.550075037518759,0.9897146602200068
3.5637818909454726,0.9897390852862036
3.577488744372186,0.9909247843861865
3.591195597798899,0.9915359125657932
3.6049024512256125,0.9934183938001193
3.6186093046523258,0.9940706408240751
3.632316158079039,0.9957194620016748
3.6460230115057524,0.99454042022842
3.659729864932466,0.9953818206274508
3.6734367183591794,0.9948107051823084
3.6871435717858927,0.9946856899180169
3.700850425212606,0.9946223351267391
3.7145572786393193,0.99568286810699
3.7282641320660326,0.9933350435264104
3.741970985492746,0.993567409326783
3.755677838919459,0.9900614363486685
3.769384692346173,0.9886011137614134
3.783091545772886,0.9865178805918183
3.7967983991995995,0.9824097847633285
3.810505252626313,0.9818444920758391
3.824212106053026,0.9811936630034604
3.8379189594797394,0.9787075124538406
3.8516258129064527,0.9761297382946901
3.8653326663331664,0.9744974131212534
3.8790395197598797,0.9741806499965749
3.892746373186593,0.9731384833094224
3.9064532266133063,0.9715514602122237
3.9201600800400196,0.9733921885497099
3.933866933466733,0.9724900247425615
3.947573786893446,0.9747553624052017
3.96128064032016,0.9753651666843095
3.974987493746873,0.9780149720808485
3.9886943471735865,0.9809874247115432
4.0024012006003,0.983870911817363
4.016108054027013,0.9861855149635114
4.029814907453726,0.9915269149216142
4.04352176088044,0.9959522037712422
4.057228614307153,0.9992504163607588
4.070935467733866,1.0041295234724847
4.08464232116058,1.0090579562679272
4.098349174587293,1.012262390810369
4.112056028014007,1.0180103988501923
4.12576288144072,1.0219024358400866
4.139469734867434,1.0257676412078827
4.153176588294147,1.0278409386466367
4.16688344172086,1.0315614904200947
4.1805902951475735,1.0332475133432697
4.194297148574287,1.0359331813891726
4.208004002001,1.0376491642809276
4.221710855427713,1.0376093910518502
4.235417708854427,1.0376785655928789
4.24912456228114,1.0368178349923727
4.262831415707853,1.0350929453376896
4.276538269134567,1.0336211707920602
4.29024512256128,1.0307365776869333
4.303951975987993,1.0279935690563444
4.317658829414707,1.0248986980022046
4.331365682841421,1.01994446773146
4.345072536268134,1.0168976472098474
4.358779389694847,1.0127512626612005
4.3724862431215605,1.0082886601035013
4.386193096548274,1.0050697916266274
4.399899949974987,1.0014436464858798
4.4136068034017,0.9973508862177712
4.427313656828414,0.994465293566606
4.441020510255127,0.9901876599007153
4.45472736368184,0.98800035565629
4.468434217108554,0.9856916881424644
4.482141070535267,0.9831282913357854
4.49584792396198,0.9835301237477281
4.5095547773886935,0.9827566044655799
4.523261630815408,0.9817220174565169
4.536968484242121,0.9827020143944877
4.550675337668834,0.9825669089971398
4.5643821910955475,0.9843309108685303
4.578089044522261,0.9864250906289829
4.591795897948974,0.9874259348684975
4.605502751375687,0.9895386746489631
4.619209604802401,0.9921699313407119
4.632916458229114,0.995916251700644
4.646623311655827,0.9991676834063543
4.660330165082541,0.9991746583704314
4.674037018509254,1.0026689084657692
4.687743871935967,1.003920061900383
4.7014507253626805,1.0065577160635562
4.715157578789395,1.009140752678101
4.728864432216108,1.0103509705584999
4.742571285642821,1.0113721027777909
4.756278139069535,1.0110227658980107
4.769984992496248,1.0122268744073857
4.783691845922961,1.0110644121913428
4.7973986993496744,1.0099302218577566
4.811105552776388,1.008482260573303
4.824812406203101,1.0073565877044794
4.838519259629814,1.0050613634074472
4.852226113056528,1.0030205450822074
4.865932966483241,0.9996101097288352
4.879639819909954,0.9985696432984003
4.8933466733366675,0.9962762472915875
4.907053526763381,0.9930180557610038
4.920760380190095,0.9902398721440244
4.934467233616808,0.9870146036239953
4.948174087043522,0.9860701128421125
4.961880940470235,0.9837193702794962
4.975587793896948,0.9824257655358648
4.9892946473236615,0.9813811859972489
5.003001500750375,0.9807907502065392
5.016708354177088,0.9812229743821279
5.030415207603801,0.9796685622828238
5.044122061030515,0.9812074252336971
5.057828914457228,0.981775040210465
5.071535767883941,0.9840089275880395
5.0852426213106545,0.9848582116920036
5.098949474737368,0.9872838590389008
5.112656328164081,0.9896542311831884
5.126363181590795,0.992918948675715
5.140070035017509,0.9928766111622634
5.153776888444222,0.9989891846030724
5.167483741870935,1.0007779440826086
5.1811905952976485,1.0029948252331675
5.194897448724362,1.0048472655621747
5.208604302151075,1.0073743766115448
5.222311155577788,1.0085461989487505
5.236018009004502,1.0107052568314818
5.249724862431215,1.011996767652239
5.263431715857928,1.012792413739835
5.2771385692846415,1.0139288591608502
5.290845422711355,1.0139414061472536
5.304552276138068,1.01272844937334
5.318259129564782,1.0116456118637709
5.331965982991496,1.009676237505651
5.345672836418209,1.007279019232213
5.359379689844922,1.0058305522589666
5.3730865432716355,1.0051163355865933
5.386793396698349,1.0010147351605483
5.400500250125062,0.998794646623243
5.414207103551775,0.9966505131434512
5.427913956978489,0.9940933603070349
5.441620810405202,0.9915463213415736
5.455327663831915,0.9894455878621748
5.4690345172586285,0.9877184250607011
5.482741370685342,0.9858524332078291
5.496448224112055,0.9853493360122976
5.510155077538768,0.9839897110078182
5.523861930965483,0.9849915937695025
5.537568784392196,0.9834445621379481
5.551275637818909,0.9861503076885961
5.5649824912456225,0.9864662262816294
5.578689344672336,0.9889584082927467
5.592396198099049,0.9892755686637323
5.606103051525762,0.9930524041619896
5.619809904952476,0.9959518054485472
5.633516758379189,1.0000485671716162
5.647223611805902,1.0038996738012163
5.660930465232616,1.0076103763568278
5.674637318659329,1.0108919506021485
5.688344172086042,1.0142684207819033
5.7020510255127554,1.0198368469120649
5.71575787893947,1.0213660962251945
5.729464732366183,1.0253224892402195
5.743171585792896,1.029306383923608
5.7568784392196095,1.032092808483142
5.770585292646323,1.0326923452827992
5.784292146073036,1.0354328707627265
5.797998999499749,1.0353812684313064
5.811705852926463,1.0354333937808602
5.825412706353176,1.0345882239838842
5.839119559779889,1.032904893646723
5.852826413206603,1.032442068203772
5.866533266633316,1.0308422985472938
5.880240120060029,1.0278968467183962
5.8939469734867425,1.023411147086289
5.907653826913456,1.0202793307894018
5.92136068034017,1.0162085302322414
5.935067533766883,1.0122953691010694
5.9487743871935965,1.008687666063195
5.96248124062031,1.0027869491579464
5.976188094047023,0.9988279613735537
5.989894947473736,0.9932070145242907
6.00360180090045,0.9901725975931911
6.017308654327163,0.9860443973290858
6.031015507753876,0.9827643498286652
6.04472236118059,0.9803004694532649
6.058429214607303,0.9766608115242056
6.072136068034016,0.9746983311709868
6.0858429214607295,0.9724530186629357
6.099549774887443,0.9703447708831889
6.113256628314156,0.9700839731944964
6.12696348174087,0.9693533706214941
6.1406703351675835,0.9694855048757905
6.154377188594297,0.970636048137864
6.16808404202101,0.971773689491805
6.181790895447723,0.9727614606524467
6.195497748874437,0.9734565526656624
6.20920460230115,0.9773363568059514
6.222911455727863,0.9796106778834685
6.236618309154577,0.9830901390780616
6.25032516258129,0.9846452711638258
6.264032016008003,0.9870910580532564
6.2777388694347165,0.9897311187328607
6.29144572286143,0.9915370155050284
6.305152576288143,0.992792623247689
6.318859429714857,0.9943890135131767
6.3325662831415706,0.9965433780214018
6.346273136568284,0.996846999551509
6.359979989994997,0.996600710109063
6.37368684342171,0.998279189751893
6.387393696848424,0.9987703014017703
6.401100550275137,0.9978287978097924
6.41480740370185,0.9966310864956104
6.428514257128564,0.9968590300078547
6.442221110555277,0.9960175308049797
6.45592796398199,0.9948733890829041
6.4696348174087035,0.9946977188066632
6.483341670835417,0.9926344258167352
6.49704852426213,0.992174686177074
6.510755377688843,0.9904217724208466
6.524462231115558,0.9909518067972477
6.538169084542271,0.9914597431760759
6.551875937968984,0.9897616089751674
6.5655827913956974,0.9903342673206997
6.579289644822411,0.9905888019014926
6.592996498249124,0.991951209399542
6.606703351675837,0.9940430666020744
6.620410205102551,0.995897392360763
6.634117058529264,0.9970484789134247
6.647823911955977,0.9996071418131296
6.6615307653826905,1.0035006484996005
6.675237618809404,1.005889703543606
6.688944472236117,1.0097026762397954
6.70265132566283,1.0126913677333762
6.716358179089544,1.0156562198212937
6.730065032516258,1.019850477499153
6.743771885942971,1.0238237804743953
6.7574787393696845,1.0259591458799124
6.771185592796398,1.0297339712616456
6.784892446223111,1.0329577780212862
6.798599299649824,1.0354842107825115
6.812306153076538,1.0371809154646665
6.826013006503251,1.037035903740995
6.839719859929964,1.0389175948779894
6.8534267133566775,1.0394851843942632
6.867133566783391,1.0388539468302507
6.880840420210104,1.0381061656566837
6.894547273636817,1.0350192298629042
6.908254127063531,1.0327612750426565
6.921960980490245,1.0297038627436197
6.935667833916958,1.027163129515484
6.9493746873436715,1.0236151582694375
6.963081540770385,1.0189678082185718
6.976788394197098,1.0152094568971741
6.990495247623811,1.0084656509479981
7.004202101050525,1.0040034896502854
7.017908954477238,0.9995556999986469
7.031615807903951,0.9937844820263912
7.0453226613306645,0.9908075170925709
7.059029514757378,0.9851637628556174
7.072736368184091,0.9824338773207706
7.086443221610804,0.978510420219534
7.100150075037518,0.9737757456238294
7.113856928464231,0.9724288910946423
7.127563781890945,0.9706249732542825
7.1412706353176585,0.9680796249599428
7.154977488744372,0.9669165424774581
7.168684342171085,0.9669367956736152
7.182391195597798,0.9670932747704226
7.196098049024512,0.96917570378802
7.209804902451225,0.9706899255165513
7.223511755877938,0.9712934618209321
7.2372186093046516,0.973946049656136
7.250925462731365,0.9772926652728043
7.264632316158078,0.9793379047063298
7.278339169584791,0.9827723044862537
7.292046023011505,0.9872935585974246
7.305752876438218,0.9901457331435606
7.319459729864932,0.9929744493703636
7.3331665832916455,0.9962504630903736
