time,flux
0.0,0.9454175885863898
0.013706853426713355,0.9424505401239134
0.02741370685342671,0.9442700228372642
0.041120560280140064,0.9496332245279303
0.05482741370685342,0.9562869935725291
0.06853426713356678,0.9672469237008801
0.08224112056028013,0.9818649689391911
0.09594797398699349,0.9957262715418946
0.10965482741370684,1.0087767003738557
0.1233616808404202,1.0216827396551535
0.13706853426713356,1.0293377806667745
0.1507753876938469,1.0410043958396424
0.16448224112056026,1.0458505128444877
0.1781890945472736,1.0459797934081634
0.19189594797398699,1.0459572961911914
0.20560280140070034,1.0460572635217813
0.21930965482741369,1.042185057661679
0.23301650825412704,1.032573979746803
0.2467233616808404,1.0213687670797842
0.26043021510755376,1.0104699604701606
0.2741370685342671,0.9993168784215
0.28784392196098046,0.9888216316792083
0.3015507753876938,0.9801472441648436
0.31525762881440716,0.9711371855217159
0.3289644822411205,0.9633242612993614
0.34267133566783387,0.9607517597722754
0.3563781890945472,0.9599629563725858
0.3700850425212606,0.9610327887406823
0.38379189594797397,0.9640581689957329
0.3974987493746873,0.9699261707517278
0.41120560280140067,0.9782163841778412
0.424912456228114,0.9890489394663332
0.43861930965482737,0.9981238978039292
0.4523261630815407,1.0078937819807106
0.46603301650825407,1.016199038888988
0.4797398699349674,1.0241808882991992
0.4934467233616808,1.0272963098377492
0.5071535767883941,1.0327944808265133
0.5208604302151075,1.0324097500065659
0.5345672836418208,1.0320721888002529
0.5482741370685342,1.029968544326775
0.5619809904952475,1.0233465961545078
0.5756878439219609,1.0155926081007494
0.5893946973486743,1.0067127860572223
0.6031015507753876,0.997406283331305
0.616808404202101,0.9882183247663886
0.6305152576288143,0.9812108225797169
0.6442221110555277,0.9752711987741253
0.657928964482241,0.9702386379074956
0.6716358179089544,0.9679806518022098
0.6853426713356677,0.9675688417384163
0.6990495247623811,0.9710206268000738
0.7127563781890944,0.9728373611653351
0.7264632316158078,0.9794156877407976
0.7401700850425212,0.9880255284077127
0.7538769384692345,0.995859136191634
0.7675837918959479,1.0040382264990069
0.7812906453226612,1.0131368079295533
0.7949974987493746,1.0207477528956865
0.8087043521760879,1.0274207806074722
0.8224112056028013,1.0315620650706832
0.8361180590295146,1.0352427106075304
0.849824912456228,1.0338856414543307
0.8635317658829413,1.0305591655478783
0.8772386193096547,1.0266180009848769
0.8909454727363681,1.0221262690787043
0.9046523261630814,1.012590636287486
0.9183591795897948,1.0028137293254737
0.9320660330165081,0.9923568909579267
0.9457728864432215,0.98219132954153
0.9594797398699348,0.9747027120924638
0.9731865932966483,0.9658882473977989
0.9868934467233615,0.9604519124234124
1.000600300150075,0.958404268983833
1.0143071535767882,0.9579975859883764
1.0280140070035018,0.9603510266212942
1.041720860430215,0.9587975977310673
1.0554277138569284,0.9744355727405598
1.0691345672836416,0.9832457386437822
1.0828414207103552,0.9934147020453469
1.0965482741370685,1.0037095544936554
1.1102551275637818,1.017028493926602
1.123961980990495,1.028738618519079
1.1376688344172086,1.0344409456135377
1.1513756878439219,1.0437607701101375
1.1650825412706352,1.0494797827027178
1.1787893946973487,1.0512148492105888
1.192496248124062,1.048925100093086
1.2062031015507753,1.0445877277605384
1.2199099549774886,1.0366480959280073
1.233616808404202,1.0280346938246414
1.2473236618309154,1.015719297469295
1.2610305152576287,1.0024998750898173
1.274737368684342,0.9904586682756632
1.2884442221110555,0.9750754920752475
1.3021510755377688,0.9670719223703482
1.315857928964482,0.956701034312409
1.3295647823911956,0.9503161350831738
1.3432716358179089,0.9450394577749265
1.3569784892446222,0.9424749286413894
1.3706853426713355,0.9467508894937603
1.384392196098049,0.9510580214976997
1.3980990495247623,0.9579317585299931
1.4118059029514756,0.9705765230882545
1.4255127563781889,0.9831660977453578
1.4392196098049024,0.9966372713596099
1.4529264632316157,1.01029967037601
1.466633316658329,1.0234736588109887
1.4803401700850425,1.0381318428910502
1.4940470235117558,1.0469717806267889
1.507753876938469,1.0551701751750504
1.5214607303651824,1.0571810215664021
1.5351675837918959,1.061341637864782
1.5488744372186092,1.0588062589794769
1.5625812906453225,1.0515358505139265
1.5762881440720358,1.0413673005517987
1.5899949974987493,1.0324171769712378
1.6037018509254626,1.0180073225482056
1.6174087043521759,1.0009321936460993
1.6311155577788894,0.990907702376622
1.6448224112056027,0.9747481588550705
1.658529264632316,0.961872921606163
1.6722361180590293,0.9523889698096073
1.6859429714857428,0.9438105990606459
1.699649824912456,0.9385582814986057
1.7133566783391694,0.9380073833514819
1.7270635317658827,0.9403780533048638
1.7407703851925962,0.9464600158982586
1.7544772386193095,0.95334876751674
1.7681840920460228,0.9653418867529647
1.7818909454727363,0.9789335824298775
1.7955977988994496,0.9929512769134585
1.8093046523261629,1.0088879199845309
1.8230115057528762,1.0228815982724777
1.8367183591795897,1.0337909640973932
1.850425212606303,1.0440899029788777
1.8641320660330163,1.051932521244678
1.8778389194597296,1.0577730190634325
1.891545772886443,1.0596016503723087
1.9052526263131564,1.0531045881647694
1.9189594797398697,1.050001805380708
1.9326663331665832,1.0431534818777655
1.9463731865932965,1.0329065531858115
1.9600800400200098,1.0189016396154087
1.973786893446723,1.0061519456292576
1.9874937468734366,0.993880990866587
2.00120060030015,0.982420150360681
2.014907453726863,0.9697878209549193
2.0286143071535765,0.9626390447586458
2.04232116058029,0.9545681411213481
2.0560280140070035,0.9514291285890957
2.069734867433717,0.9465568852431474
2.08344172086043,0.9487915674364766
2.0971485742871434,0.9537516301592937
2.1108554277138567,0.9616090151696414
2.12456228114057,0.970253526250077
2.1382691345672833,0.982697157301998
2.1519759879939966,0.9933266562743016
2.1656828414207103,1.0029537198567962
2.1793896948474236,1.0144672107983772
2.193096548274137,1.026186607738081
2.20680340170085,1.0334672530806412
2.2205102551275635,1.0367881042146918
2.234217108554277,1.0409920458952895
2.24792396198099,1.0430657686559957
2.261630815407704,1.0411051379089749
2.275337668834417,1.0354044358746253
2.2890445222611304,1.0314864992880644
2.3027513756878437,1.0221793658445875
2.316458229114557,1.0120920253577217
2.3301650825412703,1.004949717717983
2.3438719359679836,0.9954174172137559
2.3575787893946973,0.9877961049269273
2.3712856428214106,0.9784927225784311
2.384992496248124,0.9742478521505585
2.3986993496748372,0.970733173379863
2.4124062031015505,0.9693826850426884
2.426113056528264,0.9672266212615891
2.439819909954977,0.9699405678590484
2.4535267633816904,0.9747471008973112
2.467233616808404,0.9793512007792902
2.4809404702351174,0.9858238673037071
2.4946473236618307,0.9918387027748924
2.508354177088544,0.998102149070235
2.5220610305152573,1.0033035870787652
2.5357678839419706,1.0091464471220781
2.549474737368684,1.015592392448264
2.5631815907953976,1.0176655582604517
2.576888444222111,1.0199741858403484
2.5905952976488242,1.0210177931830675
2.6043021510755375,1.0140841378180108
2.618009004502251,1.016767778338388
2.631715857928964,1.0147097617779968
2.6454227113556774,1.01000835426706
2.659129564782391,1.004160345791514
2.6728364182091044,1.0003291145545459
2.6865432716358177,0.996566318792023
2.700250125062531,0.9924767993276424
2.7139569784892443,0.989575958207467
2.7276638319159576,0.9873061694504116
2.741370685342671,0.9868049253366935
2.755077538769384,0.9857566008749415
2.768784392196098,0.9892274525503373
2.7824912456228112,0.9895247995134666
2.7961980990495245,0.9938860009689482
2.809904952476238,0.9960483744966503
2.823611805902951,1.0006682736844166
2.8373186593296644,1.0039981523414527
2.8510255127563777,1.0061447678686979
2.8647323661830915,1.0099424814091558
2.8784392196098048,1.0142557108892627
2.892146073036518,1.0123218460164034
2.9058529264632313,1.0127811999234153
2.9195597798899446,1.0093753136387018
2.933266633316658,1.008903208381217
2.9469734867433712,1.0048333480211071
2.960680340170085,0.9997192401069236
2.9743871935967983,0.995520669939111
2.9880940470235116,0.9916975704491928
3.001800900450225,0.9894508507311973
3.015507753876938,0.9866819572444903
3.0292146073036514,0.9827796401179284
3.0429214607303647,0.9819808928376739
3.056628314157078,0.980663938267077
3.0703351675837918,0.9819218223215652
3.084042021010505,0.9850436814522704
3.0977488744372184,0.9907786152098875
3.1114557278639317,0.9944188872600654
3.125162581290645,1.0002411505166167
3.1388694347173582,1.0044174776988168
3.1525762881440715,1.0125811476013087
3.1662831415707853,1.0153089314878558
3.1799899949974986,1.0196955707957205
3.193696848424212,1.0224969590104307
3.207403701850925,1.0244387387736549
3.2211105552776385,1.0246426947184208
3.2348174087043517,1.0228331760880371
3.248524262131065,1.022609498872688
3.262231115557779,1.0148545010901173
3.275937968984492,1.0115129063630954
3.2896448224112054,1.0045188092243111
3.3033516758379187,0.9976698597008774
3.317058529264632,0.992970379995666
3.3307653826913453,0.9870541289302778
3.3444722361180586,0.9809886230694509
3.358179089544772,0.9742724970319331
3.3718859429714856,0.9714291746235214
3.385592796398199,0.9702318245130341
3.399299649824912,0.9709409284748313
3.4130065032516255,0.9709274710244429
3.4267133566783388,0.9746698513688025
3.440420210105052,0.9802457425003197
3.4541270635317654,0.9866183257383153
3.467833916958479,0.9937873265952631
3.4815407703851924,1.0007213210150334
3.4952476238119057,1.0076886154974694
3.508954477238619,1.0157609292758412
3.5226613306653323,1.0221138176039277
3.5363681840920456,1.0257032623830822
3.550075037518759,1.028343245609718
3.5637818909454726,1.0320020534629548
3.577488744372186,1.0312988716484695
3.591195597798899,1.0314889398539904
3.6049024512256125,1.0282599497164975
3.6186093046523258,1.0225914067858888
3.632316158079039,1.0164526547662454
3.6460230115057524,1.0101202724771883
3.659729864932466,1.0028041806076655
3.6734367183591794,0.9958383785904948
3.6871435717858927,0.988092710024599
3.700850425212606,0.9790774828834646
3.7145572786393193,0.9782606292748776
3.7282641320660326,0.9712680775305019
3.741970985492746,0.9717094084418083
3.755677838919459,0.9703621153575289
3.769384692346173,0.9683420388460552
3.783091545772886,0.9701406264245075
3.7967983991995995,0.9732911577851151
3.810505252626313,0.9796806826399
3.824212106053026,0.986052866213529
3.8379189594797394,0.9919976461358994
3.8516258129064527,1.002343161437608
3.8653326663331664,1.0061842264510685
3.8790395197598797,1.0132400258299128
3.892746373186593,1.0180182010649266
3.9064532266133063,1.0234277244730237
3.9201600800400196,1.025878961680455
3.933866933466733,1.0279205340219044
3.947573786893446,1.0271203190263523
3.96128064032016,1.025685683911465
3.974987493746873,1.025132988794945
3.9886943471735865,1.0213477997973055
4.0024012006003,1.0175523696575202
4.016108054027013,1.010867597049223
4.029814907453726,1.0056336651571292
4.04352176088044,1.000323378150651
4.057228614307153,0.9944202080569348
4.070935467733866,0.9897390763014009
4.08464232116058,0.9849867688033704
4.098349174587293,0.9826273407829292
4.112056028014007,0.9808135191247038
4.12576288144072,0.9776434585810957
4.139469734867434,0.9785172212603398
4.153176588294147,0.9773916092384167
4.16688344172086,0.9802194262035091
4.1805902951475735,0.9811644237805327
4.194297148574287,0.9856461289384235
4.208004002001,0.986752532027212
4.221710855427713,0.9936907761168602
4.235417708854427,0.9974600770966128
4.24912456228114,1.003753109030153
4.262831415707853,1.0056408444900744
4.276538269134567,1.0089812915378398
4.29024512256128,1.0114188846314813
4.303951975987993,1.0167906149434494
4.317658829414707,1.0170844294974901
4.331365682841421,1.0172834227026937
4.345072536268134,1.0180225983998896
4.358779389694847,1.0175043473455327
4.3724862431215605,1.014264639778319
4.386193096548274,1.0168362353608578
4.399899949974987,1.0144597647308924
4.4136068034017,1.0107298277110324
4.427313656828414,1.0058726084872134
4.441020510255127,1.005101927882372
4.45472736368184,1.0011788852580477
4.468434217108554,0.9974472307632036
4.482141070535267,0.9931838307031033
4.49584792396198,0.992612667044424
4.5095547773886935,0.9880989638872549
4.523261630815408,0.9876320090823297
4.536968484242121,0.9868514560861855
4.550675337668834,0.9843649247364709
4.5643821910955475,0.9843366886122753
4.578089044522261,0.9840023565874185
4.591795897948974,0.9823977559691406
4.605502751375687,0.9837627047300624
4.619209604802401,0.9870281304243049
4.632916458229114,0.9892100916574584
4.646623311655827,0.9906041529511902
4.660330165082541,0.9934589263469622
4.674037018509254,0.9987720957098627
4.687743871935967,1.0012028860355395
4.7014507253626805,1.0069408717060704
4.715157578789395,1.009527980220967
4.728864432216108,1.012946481743117
4.742571285642821,1.0169106439743063
4.756278139069535,1.0197609279106579
4.769984992496248,1.022485537995139
4.783691845922961,1.0337553256501093
4.7973986993496744,1.0195925375812076
4.811105552776388,1.0220053011499288
4.824812406203101,1.0180704661827127
4.838519259629814,1.0132238482002063
4.852226113056528,1.0101725470322236
4.865932966483241,1.004159660419661
4.879639819909954,0.9995109962666073
4.8933466733366675,0.9957982980541644
4.907053526763381,0.9913603309602026
4.920760380190095,0.9842083819487577
4.934467233616808,0.9804136679933539
4.948174087043522,0.9780207958693662
4.961880940470235,0.973333235407195
4.975587793896948,0.9736825279118433
4.9892946473236615,0.974175232093394
5.003001500750375,0.978572728052721
5.016708354177088,0.9789654192172179
5.030415207603801,0.9832717194998339
5.044122061030515,0.9875853059778688
5.057828914457228,0.9944432578419116
5.071535767883941,0.9990686473202512
5.0852426213106545,1.0077917493176793
5.098949474737368,1.0116214875214111
5.112656328164081,1.01625291765422
5.126363181590795,1.020838048687793
5.140070035017509,1.0260467690768686
5.153776888444222,1.027349547711467
5.167483741870935,1.029667893074648
5.1811905952976485,1.0277093324459283
5.194897448724362,1.0264596201230825
5.208604302151075,1.0215121965359006
5.222311155577788,1.0200123242686459
5.236018009004502,1.0122656375995607
5.249724862431215,1.0049069247427995
5.263431715857928,0.9994221589104975
5.2771385692846415,0.9923747752107009
5.290845422711355,0.9872518623945352
5.304552276138068,0.9809376078730984
5.318259129564782,0.9764288431908243
5.331965982991496,0.9737097012459343
5.345672836418209,0.9720898152679394
5.359379689844922,0.97176776833727
5.3730865432716355,0.9741262105561836
5.386793396698349,0.9770290153016045
5.400500250125062,0.9782750065600029
5.414207103551775,0.9847401555865017
5.427913956978489,0.9932279474792103
5.441620810405202,0.9983882371949144
5.455327663831915,1.0027530962598412
5.4690345172586285,1.010660648200188
5.482741370685342,1.0161067274363431
5.496448224112055,1.0186365647995943
5.510155077538768,1.0248212791338056
5.523861930965483,1.0248850608304
5.537568784392196,1.0248196024787293
5.551275637818909,1.0228410045151808
5.5649824912456225,1.0211755735869559
5.578689344672336,1.0174154114855773
5.592396198099049,1.0129586002397188
5.606103051525762,1.0085882851998886
5.619809904952476,1.0029543517413968
5.633516758379189,0.9979218782876909
5.647223611805902,0.9912253042646852
5.660930465232616,0.9882026307335149
5.674637318659329,0.9835452945822969
5.688344172086042,0.9847078554167283
5.7020510255127554,0.9808536912125886
5.71575787893947,0.9829938614467364
5.729464732366183,0.9848420484146684
5.743171585792896,0.9848936919701192
5.7568784392196095,0.9896356660553278
5.770585292646323,0.991901583254994
5.784292146073036,0.9949618330395269
5.797998999499749,1.0007669960384178
5.811705852926463,1.0041361390752017
5.825412706353176,1.0059035564639274
5.839119559779889,1.009220637137605
5.852826413206603,1.0106906211955264
5.866533266633316,1.0113561585969877
5.880240120060029,1.0099677607568478
5.8939469734867425,1.0085206453261095
5.907653826913456,1.007633622938496
5.92136068034017,1.0069115469662289
5.935067533766883,1.0026824327706123
5.9487743871935965,0.9995432660051273
5.96248124062031,0.9974794328517642
5.976188094047023,0.995090887915007
5.989894947473736,0.9931802116832256
6.00360180090045,0.9896334399979694
6.017308654327163,0.9901281600757229
6.031015507753876,0.9927444580081211
6.04472236118059,0.9926331859683936
6.058429214607303,0.9951908938343197
6.072136068034016,1.000257442953468
6.0858429214607295,1.0017705075179528
6.099549774887443,1.0075792553049903
6.113256628314156,1.0062692562466493
6.12696348174087,1.012772966647132
6.1406703351675835,1.0115684073928581
6.154377188594297,1.0131038900822087
6.16808404202101,1.0119310255956433
6.181790895447723,1.012677345011616
6.195497748874437,1.0081751065384974
6.20920460230115,1.0055643529234854
6.222911455727863,1.0019474560516726
6.236618309154577,0.9989335880701729
6.25032516258129,0.9945853474526003
6.264032016008003,0.9888926347427753
6.2777388694347165,0.9848720091320308
6.29144572286143,0.9809814632195106
6.305152576288143,0.9776442740833289
6.318859429714857,0.9773360579744844
6.3325662831415706,0.97912854568447
6.346273136568284,0.9793442798662936
6.359979989994997,0.9829979972101439
6.37368684342171,0.988746474337007
6.387393696848424,0.9949331590643046
6.401100550275137,0.9847638858980452
6.41480740370185,1.0065817656732434
6.428514257128564,1.0127369537668813
6.442221110555277,1.0222288182635828
6.45592796398199,1.0242086331414482
6.4696348174087035,1.029865171885136
6.483341670835417,1.0336766976218077
6.49704852426213,1.0348436189786174
6.510755377688843,1.0326623489198195
6.524462231115558,1.029428485468528
6.538169084542271,1.0263929299077006
6.551875937968984,1.0162733931994594
6.5655827913956974,1.0092614122187133
6.579289644822411,1.0008452139963708
6.592996498249124,0.9896880204295664
6.606703351675837,0.9808577556989828
6.620410205102551,0.9730388508895997
6.634117058529264,0.9646026621029373
6.647823911955977,0.9607207266654746
6.6615307653826905,0.9571070727750878
6.675237618809404,0.9535696198094481
6.688944472236117,0.9585481538415263
6.70265132566283,0.9620843546091902
6.716358179089544,0.9687797391420211
6.730065032516258,0.9801066555795881
6.743771885942971,0.9886432822356714
6.7574787393696845,0.9987819325112214
6.771185592796398,1.012256148966073
6.784892446223111,1.021992482751945
6.798599299649824,1.0325508578473033
6.812306153076538,1.0408853741851294
6.826013006503251,1.0488798240526451
6.839719859929964,1.0523751507518382
6.8534267133566775,1.0513430472492196
6.867133566783391,1.0501240700754895
6.880840420210104,1.0444475127371788
6.894547273636817,1.03726060694784
6.908254127063531,1.0261572786591389
6.921960980490245,1.0151526252950187
6.935667833916958,1.0024697913989375
6.9493746873436715,0.9911396231474042
6.963081540770385,0.9765128646138673
6.976788394197098,0.9658819533056051
6.990495247623811,0.9561371237754301
7.004202101050525,0.9480042887790036
7.017908954477238,0.9438477860995954
7.031615807903951,0.9413815146901271
7.0453226613306645,0.9460281998473407
7.059029514757378,0.9510880559174433
7.072736368184091,0.9599321707797498
7.086443221610804,0.9678236945465541
7.100150075037518,0.9803557019169276
7.113856928464231,0.9948833964250103
7.127563781890945,1.0095900899367878
7.1412706353176585,1.02095776646297
7.154977488744372,1.03366590307418
7.168684342171085,1.0463152124006023
7.182391195597798,1.0518776146100735
7.196098049024512,1.057606529909283
7.209804902451225,1.0589922444572049
7.223511755877938,1.0572285909535863
7.2372186093046516,1.0526534479525282
7.250925462731365,1.0445409243167947
7.264632316158078,1.0340264980766125
7.278339169584791,1.0193741232505125
7.292046023011505,1.007321096503451
7.305752876438218,0.9914278188634813
7.319459729864932,0.9795389965053373
7.3331665832916455,0.9681747127887845
7.346873436718359,0.9565781721058021
