time,flux
0.0,1.019197600502659
0.013706853426713355,1.0235549864569777
0.02741370685342671,1.0251722103424197
0.041120560280140064,1.0298795801956997
0.05482741370685342,1.0269827033263605
0.06853426713356678,1.0265906892951873
0.08224112056028013,1.025755985814876
0.09594797398699349,1.0201373474367954
0.10965482741370684,1.0141176672006085
0.1233616808404202,1.0101022016450685
0.13706853426713356,1.002901770163749
0.1507753876938469,0.9965874616597883
0.16448224112056026,0.9905151104127625
0.1781890945472736,0.9837313509885504
0.19189594797398699,0.9801227992321361
0.20560280140070034,0.973538394337814
0.21930965482741369,0.9716185246636516
0.23301650825412704,0.9680456407144014
0.2467233616808404,0.9696343648672676
0.26043021510755376,0.9712790599315156
0.2741370685342671,0.9730430491968577
0.28784392196098046,0.9766687043926755
0.3015507753876938,0.9822875573257979
0.31525762881440716,0.9873875392468637
0.3289644822411205,0.9928460341883824
0.34267133566783387,1.0000668883539703
0.3563781890945472,1.0047537913356235
0.3700850425212606,1.011420744598619
0.38379189594797397,1.0164902416717099
0.3974987493746873,1.020601350828684
0.41120560280140067,1.0233376555538023
0.424912456228114,1.0268844900691056
0.43861930965482737,1.0257722873284463
0.4523261630815407,1.0268454440401997
0.46603301650825407,1.0243296727474749
0.4797398699349674,1.0221638566738598
0.4934467233616808,1.018515599476493
0.5071535767883941,1.0142653676867992
0.5208604302151075,1.0092628755203674
0.5345672836418208,1.0058505942603089
0.5482741370685342,0.9973722518681857
0.5619809904952475,0.9949704827723047
0.5756878439219609,0.9873476542517892
0.5893946973486743,0.9866283293210854
0.6031015507753876,0.983319109520753
0.616808404202101,0.9832522982735927
0.6305152576288143,0.9829990231723267
0.6442221110555277,0.9822205022746594
0.657928964482241,0.9834648014749058
0.6716358179089544,0.9882135341306107
0.6853426713356677,0.9867779696706885
0.6990495247623811,0.9939851150311105
0.7127563781890944,0.9945629997763004
0.7264632316158078,0.9980929945091197
0.7401700850425212,1.0032651336401872
0.7538769384692345,1.004235700464349
0.7675837918959479,1.0071530527673924
0.7812906453226612,1.0077780314992792
0.7949974987493746,1.0086758057351954
0.8087043521760879,1.0097620657978295
0.8224112056028013,1.0082065642517946
0.8361180590295146,1.0063787505285768
0.849824912456228,1.0063988439503448
0.8635317658829413,1.0039849149537203
0.8772386193096547,0.9997012814927148
0.8909454727363681,0.9991421648681362
0.9046523261630814,0.9950264981426914
0.9183591795897948,0.9931277920394544
0.9320660330165081,0.9951342756745077
0.9457728864432215,0.9926664220010863
0.9594797398699348,0.990530727612795
0.9731865932966483,0.9902971957565779
0.9868934467233615,0.9961647010084428
1.000600300150075,0.9949294580884135
1.0143071535767882,0.999820828632839
1.0280140070035018,1.002314556670812
1.041720860430215,1.0020956062334951
1.0554277138569284,1.0075628492158017
1.0691345672836416,1.009461890196817
1.0828414207103552,1.0135230233455934
1.0965482741370685,1.0142956634955302
1.1102551275637818,1.0178150479735888
1.123961980990495,1.0158411460455725
1.1376688344172086,1.0142180947074104
1.1513756878439219,1.0138770911641481
1.1650825412706352,1.0137021825019712
1.1787893946973487,1.0075249146422343
1.192496248124062,1.0039929213376897
1.2062031015507753,1.0008141983717393
1.2199099549774886,0.9945990607837002
1.233616808404202,0.9903266275189424
1.2473236618309154,0.9867249132177887
1.2610305152576287,0.9827749798208669
1.274737368684342,0.9799200121978978
1.2884442221110555,0.976025460073232
1.3021510755377688,0.9754193489466259
1.315857928964482,0.9751945692946248
1.3295647823911956,0.9767353613324801
1.3432716358179089,0.9802813957571974
1.3569784892446222,0.9844981171426603
1.3706853426713355,0.98700044872113
1.384392196098049,0.9897639345965201
1.3980990495247623,0.997583534655816
1.4118059029514756,1.0031498373314192
1.4255127563781889,1.010700745815665
1.4392196098049024,1.0138490278326493
1.4529264632316157,1.0190018984383682
1.466633316658329,1.0205160097466777
1.4803401700850425,1.0241750968235868
1.4940470235117558,1.024035993573057
1.507753876938469,1.0275810236177882
1.5214607303651824,1.0259309143235709
1.5351675837918959,1.0251005823811328
1.5488744372186092,1.020538557162823
1.5625812906453225,1.0163781404258732
1.5762881440720358,1.0130308828913486
1.5899949974987493,1.0062596308252916
1.6037018509254626,1.0019177811480093
1.6174087043521759,0.9949975620141019
1.6311155577788894,0.9908292963358971
1.6448224112056027,0.9859243286090003
1.658529264632316,0.9817807413933339
1.6722361180590293,0.9777444568176159
1.6859429714857428,0.9767607091354205
1.699649824912456,0.9779007858243647
1.7133566783391694,0.976440086073686
1.7270635317658827,0.9767645182699144
1.7407703851925962,0.9795863589710262
1.7544772386193095,0.9823185409624293
1.7681840920460228,0.9860627748878257
1.7818909454727363,0.9904140813609913
1.7955977988994496,0.9970975260774556
1.8093046523261629,1.0008745939735564
1.8230115057528762,1.0034204771083561
1.8367183591795897,1.0065217696797988
1.850425212606303,1.0078787181364974
1.8641320660330163,1.0126049229183252
1.8778389194597296,1.015073012539333
1.891545772886443,1.0156339981449116
1.9052526263131564,1.014707698946083
1.9189594797398697,1.0144965028579245
1.9326663331665832,1.014573361590263
1.9463731865932965,1.0121499278031825
1.9600800400200098,1.008239994478652
1.973786893446723,1.0050463062218902
1.9874937468734366,1.004256771806278
2.00120060030015,1.0007952628004564
2.014907453726863,1.0004631178812011
2.0286143071535765,0.9991035394363447
2.04232116058029,0.9973194747984881
2.0560280140070035,0.9965366734006165
2.069734867433717,0.9945353198905617
2.08344172086043,0.9940721242648767
2.0971485742871434,0.9945407140669108
2.1108554277138567,0.9960478252283107
2.12456228114057,0.9958619612903454
2.1382691345672833,0.9973650664478301
2.1519759879939966,0.9993785497172133
2.1656828414207103,1.003830412183938
2.1793896948474236,1.0006741621030482
2.193096548274137,1.0011267513661344
2.20680340170085,1.0028916116314726
2.2205102551275635,1.0043595270400874
2.234217108554277,1.0007307691585794
2.24792396198099,1.0006112049889941
2.261630815407704,1.0018629319915247
2.275337668834417,0.9985945105715264
2.2890445222611304,0.9992416981464212
2.3027513756878437,0.9957051365352232
2.316458229114557,0.9923417660774055
2.3301650825412703,0.9928976453611073
2.3438719359679836,0.9903647769818913
2.3575787893946973,0.9903051025661544
2.3712856428214106,0.9897361814423625
2.384992496248124,0.9903022686237066
2.3986993496748372,0.9905665630964439
2.4124062031015505,0.9931222274074415
2.426113056528264,0.9932533891754063
2.439819909954977,0.9962052973176545
2.4535267633816904,0.9978927610912038
2.467233616808404,1.0022656439120252
2.4809404702351174,1.007932939378262
2.4946473236618307,1.009738323129248
2.508354177088544,1.012843710310333
2.5220610305152573,1.0153220342889195
2.5357678839419706,1.0185343919831227
2.549474737368684,1.019867650712775
2.5631815907953976,1.0175127260945958
2.576888444222111,1.0172658005350088
2.5905952976488242,1.0145791693416182
2.6043021510755375,1.015018549372273
2.618009004502251,1.0106815245795744
2.631715857928964,1.0093328085044837
2.6454227113556774,1.0072488450923707
2.659129564782391,1.0023807293651543
2.6728364182091044,0.9963977375531136
2.6865432716358177,0.9931280258391706
2.700250125062531,0.9904664835193944
2.7139569784892443,0.9872601617900576
2.7276638319159576,0.9848874764738342
2.741370685342671,0.9818401257536309
2.755077538769384,0.9824779879925801
2.768784392196098,0.9792884917448923
2.7824912456228112,0.9794229389359184
2.7961980990495245,0.9825895383880406
2.809904952476238,0.9839964655239113
2.823611805902951,0.9851063125967757
2.8373186593296644,0.9901039554278565
2.8510255127563777,0.9910526143607044
2.8647323661830915,0.9956472208363991
2.8784392196098048,1.0008669505071508
2.892146073036518,1.002855394179189
2.9058529264632313,1.0082442245505037
2.9195597798899446,1.0123805592300863
2.933266633316658,1.014869404301903
2.9469734867433712,1.0175646548941928
2.960680340170085,1.0185997370322608
2.9743871935967983,1.0190471499198754
2.9880940470235116,1.0201264895001627
3.001800900450225,1.0175947843119826
3.015507753876938,1.0161840167370562
3.0292146073036514,1.015911105144685
3.0429214607303647,1.013249230508918
3.056628314157078,1.0099086782288758
3.0703351675837918,1.0044537119915302
3.084042021010505,1.0027436311768094
3.0977488744372184,1.0017620487601473
3.1114557278639317,0.9960207133671989
3.125162581290645,0.9951594271003191
3.1388694347173582,0.9900707544900946
3.1525762881440715,0.9897300152156197
3.1662831415707853,0.9880503840512276
3.1799899949974986,0.987963259990574
3.193696848424212,0.9886603773402073
3.207403701850925,0.9877626380389861
3.2211105552776385,0.9892299443873572
3.2348174087043517,0.9885791456526188
3.248524262131065,0.9925139921631116
3.262231115557779,0.9923436901977247
3.275937968984492,0.9946077064349503
3.2896448224112054,0.9944262461215743
3.3033516758379187,0.9989925474467786
3.317058529264632,0.9975445704585743
3.3307653826913453,1.0004126666692283
3.3444722361180586,1.001701937795917
3.358179089544772,1.002526247939533
3.3718859429714856,1.0041199023741563
3.385592796398199,1.003951733794361
3.399299649824912,1.002597326813823
3.4130065032516255,1.00319501856314
3.4267133566783388,1.0026932510644886
3.440420210105052,1.006234581655991
3.4541270635317654,1.0034782117199557
3.467833916958479,1.0053207565219855
3.4815407703851924,1.0031891021654622
3.4952476238119057,1.0049769036589786
3.508954477238619,1.0029649645977843
3.5226613306653323,1.0050882963056256
3.5363681840920456,1.0048677700100832
3.550075037518759,1.0048597428362556
3.5637818909454726,1.0034434199974098
3.577488744372186,1.0045984075157521
3.591195597798899,1.0054934191173859
3.6049024512256125,1.0039985421019935
3.6186093046523258,1.0047711668225656
3.632316158079039,1.005489211000986
3.6460230115057524,1.002433797061661
3.659729864932466,1.0026260962278115
3.6734367183591794,1.0011269499936137
3.6871435717858927,1.0010577510880319
3.700850425212606,0.999872573157546
3.7145572786393193,0.9963878598193253
3.7282641320660326,0.9958634867465577
3.741970985492746,0.992911827674315
3.755677838919459,0.9922327820822786
3.769384692346173,0.9901802471962122
3.783091545772886,0.9900917348689249
3.7967983991995995,0.9893956702341684
3.810505252626313,0.9894176565376582
3.824212106053026,0.9887770179995163
3.8379189594797394,0.9897132808640463
3.8516258129064527,0.9898301480958689
3.8653326663331664,0.9903192580086687
3.8790395197598797,0.9922380988613295
3.892746373186593,0.9953888484534857
3.9064532266133063,0.9962910532026897
3.9201600800400196,0.9990415964624946
3.933866933466733,1.0005063304431676
3.947573786893446,1.0044955384587546
3.96128064032016,1.00823296517683
3.974987493746873,1.0086017962684868
3.9886943471735865,1.0105198939250462
4.0024012006003,1.0127017706777142
4.016108054027013,1.0115590638415048
4.029814907453726,1.0124001153368478
4.04352176088044,1.0144098867920488
4.057228614307153,1.0128507157058813
4.070935467733866,1.0118378244957018
4.08464232116058,1.0119103062609824
4.098349174587293,1.0084183785134861
4.112056028014007,1.0059028868440305
4.12576288144072,1.003207025073926
4.139469734867434,1.001510559584849
4.153176588294147,1.0002274792702341
4.16688344172086,0.9965665285334024
4.1805902951475735,0.9923141528062356
4.194297148574287,0.989190065117494
4.208004002001,0.9888741918250359
4.221710855427713,0.9897412499259658
4.235417708854427,0.9887557934117805
4.24912456228114,0.9865952515786436
4.262831415707853,0.9859941969118792
4.276538269134567,0.9865418842518254
4.29024512256128,0.987292366860088
4.303951975987993,0.988904781876196
4.317658829414707,0.9889131422007977
4.331365682841421,0.9906854949968869
4.345072536268134,0.9938917735090982
4.358779389694847,0.9953604812204306
4.3724862431215605,0.9957352652220951
4.386193096548274,0.9989924049922578
4.399899949974987,1.0013278537411325
4.4136068034017,1.0020159240725195
4.427313656828414,1.005660012477358
4.441020510255127,1.0093387806354313
4.45472736368184,1.01047020402425
4.468434217108554,1.0111754634738193
4.482141070535267,1.0106514387295158
4.49584792396198,1.0131805429806464
4.5095547773886935,1.012839907056395
4.523261630815408,1.0132175603631355
4.536968484242121,1.009434185062722
4.550675337668834,1.0098815561291112
4.5643821910955475,1.010720354075274
4.578089044522261,1.0083289407524592
4.591795897948974,1.00467252963991
4.605502751375687,1.0042603624455226
4.619209604802401,1.001503831838051
4.632916458229114,1.001242179710788
4.646623311655827,0.9971280538812921
4.660330165082541,0.997114790868296
4.674037018509254,0.9950155714536024
4.687743871935967,0.9932307292292499
4.7014507253626805,0.9906275901867253
4.715157578789395,0.9900860918432138
4.728864432216108,0.9895201568718436
4.742571285642821,0.9892332077550282
4.756278139069535,0.9877804456969068
4.769984992496248,0.9903958958972198
4.783691845922961,0.9910225999828264
4.7973986993496744,0.9903418587867918
4.811105552776388,0.9939700724156659
4.824812406203101,0.9918553247567
4.838519259629814,0.9943763468217536
4.852226113056528,0.9980865428962203
4.865932966483241,0.997941255634593
4.879639819909954,0.9988080867862136
4.8933466733366675,1.002541603109023
4.907053526763381,1.0016976221820642
4.920760380190095,1.0044540825639223
4.934467233616808,1.0034497368932747
4.948174087043522,1.0071942944369852
4.961880940470235,1.0085082459875376
4.975587793896948,1.0068578704359734
4.9892946473236615,1.0104029692291376
5.003001500750375,1.0059051139005826
5.016708354177088,1.008759926889825
5.030415207603801,1.007394675410473
5.044122061030515,1.0071847308730475
5.057828914457228,1.005385899813722
5.071535767883941,1.0046845877865362
5.0852426213106545,1.0027384658923018
5.098949474737368,1.0038665017697395
5.112656328164081,1.002233122373219
5.126363181590795,0.999927427933567
5.140070035017509,1.0018032381616955
5.153776888444222,1.0005579111012093
5.167483741870935,0.9972258055186336
5.1811905952976485,0.994591318338339
5.194897448724362,0.997340032367285
5.208604302151075,0.9954722201650853
5.222311155577788,0.9970572429118101
5.236018009004502,0.9955474808454586
5.249724862431215,0.9941153052078032
5.263431715857928,0.9958814312615926
5.2771385692846415,0.9942474532212163
5.290845422711355,0.994560204987194
5.304552276138068,0.9944958038460272
5.318259129564782,0.9928822867347216
5.331965982991496,0.9936329193066065
5.345672836418209,0.9936430949997989
5.359379689844922,0.9928383451637328
5.3730865432716355,0.9924401823360944
5.386793396698349,0.9961334883986286
5.400500250125062,0.9934114344222627
5.414207103551775,0.9958186914255998
5.427913956978489,0.998645613423235
5.441620810405202,1.001349655217951
5.455327663831915,1.0013678916461781
5.4690345172586285,1.0040850014533884
5.482741370685342,1.004041656941275
5.496448224112055,1.0068897243920178
5.510155077538768,1.0077728774396497
5.523861930965483,1.0081332940517247
5.537568784392196,1.0121896522101954
5.551275637818909,1.0108486550169267
5.5649824912456225,1.0125560052998759
5.578689344672336,1.0123436112685567
5.592396198099049,1.011727356689938
5.606103051525762,1.0130238682227417
5.619809904952476,1.0112831552972568
5.633516758379189,1.0086512134186318
5.647223611805902,1.009132834169135
5.660930465232616,1.0046553233310396
5.674637318659329,1.0041520987717063
5.688344172086042,1.0000945608376086
5.7020510255127554,0.9967296832597644
5.71575787893947,0.9908345425117465
5.729464732366183,0.9880170650178738
5.743171585792896,0.9876026754868482
5.7568784392196095,0.9845022680701935
5.770585292646323,0.9820251859291259
5.784292146073036,0.983255880805075
5.797998999499749,0.9827777227969551
5.811705852926463,0.9834090833103086
5.825412706353176,0.9839765091542155
5.839119559779889,0.9861283229389711
5.852826413206603,0.9875012100209338
5.866533266633316,0.9834493593974926
5.880240120060029,0.9945783424604695
5.8939469734867425,0.9987353615750383
5.907653826913456,1.0020084321632825
5.92136068034017,1.0043969365695118
5.935067533766883,1.0074951514263646
5.9487743871935965,1.0115729707836876
5.96248124062031,1.0132437059048574
5.976188094047023,1.0180096952992004
5.989894947473736,1.0176187967075951
6.00360180090045,1.019011609361654
6.017308654327163,1.0173764112902164
6.031015507753876,1.0161172260710867
6.04472236118059,1.0166629731681966
6.058429214607303,1.013471209806689
6.072136068034016,1.0113425450847917
6.0858429214607295,1.0074357256468105
6.099549774887443,1.0034122825621625
6.113256628314156,1.0019308228589925
6.12696348174087,0.9966615298254466
6.1406703351675835,0.994916885331766
6.154377188594297,0.9927229075587981
6.16808404202101,0.9879659606570174
6.181790895447723,0.9890623391852373
6.195497748874437,0.9859775592340535
6.20920460230115,0.9854880885613542
6.222911455727863,0.9833696975807202
6.236618309154577,0.9867497767793236
6.25032516258129,0.985989486321838
6.264032016008003,0.9893476582725186
6.2777388694347165,0.9891046686991551
6.29144572286143,0.9922206252037458
6.305152576288143,0.9951503809155345
6.318859429714857,0.9967484626644788
6.3325662831415706,1.000293294760088
6.346273136568284,1.0016726676855936
6.359979989994997,1.0012413921093715
6.37368684342171,1.003686214804582
6.387393696848424,1.0052382662597947
6.401100550275137,1.007048106381228
6.41480740370185,1.0065200465250659
6.428514257128564,1.006220438975793
6.442221110555277,1.0051565444010706
6.45592796398199,1.0053429572140569
6.4696348174087035,1.0057475820744208
6.483341670835417,1.0013187122243197
6.49704852426213,1.0004282293526068
6.510755377688843,1.001480013702542
6.524462231115558,0.9999540811233416
6.538169084542271,1.0001904445636942
6.551875937968984,0.9979266866181196
6.5655827913956974,1.0009880036976737
6.579289644822411,1.002733097109247
6.592996498249124,1.0013490651356716
6.606703351675837,1.0025153852233948
6.620410205102551,1.0051613995347433
6.634117058529264,1.004062779210446
6.647823911955977,1.0051085800205435
6.6615307653826905,1.0073683115100693
6.675237618809404,1.0058556786749124
6.688944472236117,1.0055703048491607
6.70265132566283,1.0063082583730654
6.716358179089544,1.0058409679594704
6.730065032516258,1.0038538472752716
6.743771885942971,1.0009156900429006
6.7574787393696845,0.9999440635291564
6.771185592796398,0.9978406606420297
6.784892446223111,0.995227102029087
6.798599299649824,0.9907746063129582
6.812306153076538,0.9883558046710678
6.826013006503251,0.9870617103877762
6.839719859929964,0.9855362763437544
6.8534267133566775,0.9821677670805807
6.867133566783391,0.9830079058135077
6.880840420210104,0.9832310496283508
6.894547273636817,0.9825217930287818
6.908254127063531,0.9873556334444205
6.921960980490245,0.9897290395571384
6.935667833916958,0.9915368739829694
6.9493746873436715,0.9955151329996402
6.963081540770385,1.001197376423104
6.976788394197098,1.004521418642914
6.990495247623811,1.007259573568569
7.004202101050525,1.0116891752711314
7.017908954477238,1.015850243586398
7.031615807903951,1.0186791845966705
7.0453226613306645,1.0213599218280536
7.059029514757378,1.0232525990703778
7.072736368184091,1.0224102951569982
7.086443221610804,1.021884465463206
7.100150075037518,1.020696925873008
7.113856928464231,1.0180226825022862
7.127563781890945,1.0148707730668078
7.1412706353176585,1.0082977172193224
7.154977488744372,1.0079125426128235
7.168684342171085,1.0009185369308347
7.182391195597798,0.9941470453044833
7.196098049024512,0.9901522804809154
7.209804902451225,0.9848292343253949
7.223511755877938,0.9811286540327897
7.2372186093046516,0.979259742030682
7.250925462731365,0.9760494531929049
7.264632316158078,0.9744310241465348
7.278339169584791,0.9738290403422601
7.292046023011505,0.9764398583703392
7.305752876438218,0.979204281224321
7.319459729864932,0.9803074259745368
7.3331665832916455,0.9847355174128961
7.346873436718359,0.9908033563794886
