time,flux
0.0,0.9808212872005462
0.013706853426713355,0.9771908429544841
0.02741370685342671,0.9744091327808576
0.041120560280140064,0.9737692893749615
0.05482741370685342,0.9730855199237952
0.06853426713356678,0.9751407316804739
0.08224112056028013,0.9768289567427823
0.09594797398699349,0.9816887198833603
0.10965482741370684,0.9858132501468739
0.1233616808404202,0.9921580335271705
0.13706853426713356,0.9988256596815281
0.1507753876938469,1.0056007892519503
0.16448224112056026,1.0098771715828883
0.1781890945472736,1.0164530199021657
0.19189594797398699,1.0183513438635567
0.20560280140070034,1.0246188084116234
0.21930965482741369,1.0280283002784305
0.23301650825412704,1.0282011116263394
0.2467233616808404,1.028623492017279
0.26043021510755376,1.0269001762066265
0.2741370685342671,1.0228061524697196
0.28784392196098046,1.0182351134446554
0.3015507753876938,1.0126235580486038
0.31525762881440716,1.0062310701143844
0.3289644822411205,1.0003693119857997
0.34267133566783387,0.9924128091799852
0.3563781890945472,0.9862542379601333
0.3700850425212606,0.9800407215416618
0.38379189594797397,0.975800780798983
0.3974987493746873,0.9719222944605423
0.41120560280140067,0.9688815136092505
0.424912456228114,0.9681150844780033
0.43861930965482737,0.9708286810358413
0.4523261630815407,0.9730599486867145
0.46603301650825407,0.9754989014037538
0.4797398699349674,0.9827257601730883
0.4934467233616808,0.9882889607712135
0.5071535767883941,0.9942108416172026
0.5208604302151075,1.001195463180424
0.5345672836418208,1.0098520507718483
0.5482741370685342,1.0157675722934034
0.5619809904952475,1.0218521899899256
0.5756878439219609,1.0267534091460453
0.5893946973486743,1.031163415278661
0.6031015507753876,1.0316081624376667
0.616808404202101,1.0321407459971526
0.6305152576288143,1.0309076104982593
0.6442221110555277,1.0260704028195313
0.657928964482241,1.0219554473647525
0.6716358179089544,1.0160676986178836
0.6853426713356677,1.009475963105686
0.6990495247623811,1.0028006143928248
0.7127563781890944,0.9950618427715834
0.7264632316158078,0.9873050220665468
0.7401700850425212,0.9798240919512006
0.7538769384692345,0.97453570720703
0.7675837918959479,0.9693319059447153
0.7812906453226612,0.9676564907022197
0.7949974987493746,0.9638352337725121
0.8087043521760879,0.9663452904946784
0.8224112056028013,0.9686539332452362
0.8361180590295146,0.9729055162716219
0.849824912456228,0.9784770326111375
0.8635317658829413,0.9837248504495661
0.8772386193096547,0.9925706307814219
0.8909454727363681,1.0005219190244714
0.9046523261630814,1.0072276778294178
0.9183591795897948,1.0152303947059904
0.9320660330165081,1.0216711423816474
0.9457728864432215,1.0298382090144544
0.9594797398699348,1.0320887657716435
0.9731865932966483,1.035493563584425
0.9868934467233615,1.0355977936681013
1.000600300150075,1.0344634151103351
1.0143071535767882,1.0326953404135422
1.0280140070035018,1.0269965603466604
1.041720860430215,1.020373464180897
1.0554277138569284,1.0121185190397284
1.0691345672836416,1.0041271533652747
1.0828414207103552,0.9971868340289594
1.0965482741370685,0.988946145091855
1.1102551275637818,0.9816759444655137
1.123961980990495,0.9744093352541505
1.1376688344172086,0.9694249027632066
1.1513756878439219,0.9646814979148142
1.1650825412706352,0.9631084343043886
1.1787893946973487,0.9626571640253128
1.192496248124062,0.9650886946322508
1.2062031015507753,0.9692027729744823
1.2199099549774886,0.9744959778111625
1.233616808404202,0.9812809956913754
1.2473236618309154,0.9893221609066059
1.2610305152576287,0.9962714987160373
1.274737368684342,1.0070443292672333
1.2884442221110555,1.0145483110599611
1.3021510755377688,1.021962308579181
1.315857928964482,1.028176587511991
1.3295647823911956,1.0330658303235893
1.3432716358179089,1.0372632401600215
1.3569784892446222,1.038891435974463
1.3706853426713355,1.0384297440255323
1.384392196098049,1.0352178261382041
1.3980990495247623,1.0298300658531871
1.4118059029514756,1.0246763555259237
1.4255127563781889,1.0159785743572174
1.4392196098049024,1.0064437219950033
1.4529264632316157,0.9983699275450526
1.466633316658329,0.9900068477318339
1.4803401700850425,0.9816828199464482
1.4940470235117558,0.9743514070731837
1.507753876938469,0.9667738228816534
1.5214607303651824,0.9629286753926828
1.5351675837918959,0.9608103110119278
1.5488744372186092,0.9603998187646904
1.5625812906453225,0.9628109709410665
1.5762881440720358,0.965937777649427
1.5899949974987493,0.9721558475158764
1.6037018509254626,0.978298720181726
1.6174087043521759,0.9877781954283701
1.6311155577788894,0.9953499578829955
1.6448224112056027,1.005452861396983
1.658529264632316,1.0132330954331394
1.6722361180590293,1.0224627692431996
1.6859429714857428,1.0288830019564448
1.699649824912456,1.0330784984226045
1.7133566783391694,1.0382457922181523
1.7270635317658827,1.038974891101301
1.7407703851925962,1.03888857411061
1.7544772386193095,1.0373297334569387
1.7681840920460228,1.0327860702421932
1.7818909454727363,1.0253139079074922
1.7955977988994496,1.018809751824596
1.8093046523261629,1.01055826900989
1.8230115057528762,1.001084069070225
1.8367183591795897,0.9922432198892949
1.850425212606303,0.982410734289674
1.8641320660330163,0.9757624170042262
1.8778389194597296,0.9685446633603461
1.891545772886443,0.963273492803197
1.9052526263131564,0.961328879449542
1.9189594797398697,0.9593089424869035
1.9326663331665832,0.9618008657053926
1.9463731865932965,0.9631700788926107
1.9600800400200098,0.9697260195066449
1.973786893446723,0.9760163792611808
1.9874937468734366,0.9833673397674423
2.00120060030015,0.9928270706735365
2.014907453726863,1.002559371284737
2.0286143071535765,1.0108908250423962
2.04232116058029,1.01918923060791
2.0560280140070035,1.0271294422511434
2.069734867433717,1.032938090989934
2.08344172086043,1.0387830578448585
2.0971485742871434,1.040717072961604
2.1108554277138567,1.0402207629943663
2.12456228114057,1.037483701611997
2.1382691345672833,1.0342943847077721
2.1519759879939966,1.0278201893996501
2.1656828414207103,1.0207369178211283
2.1793896948474236,1.01226292440458
2.193096548274137,1.0032146508610824
2.20680340170085,0.9941362449918486
2.2205102551275635,0.9848269338786255
2.234217108554277,0.9753395675253278
2.24792396198099,0.9692610604729656
2.261630815407704,0.964762546424691
2.275337668834417,0.9607243197855958
2.2890445222611304,0.9584519854976771
2.3027513756878437,0.9603011944464149
2.316458229114557,0.9622670723042892
2.3301650825412703,0.9670889973794081
2.3438719359679836,0.974265898687288
2.3575787893946973,0.9818252872055439
2.3712856428214106,0.9911844433981836
2.384992496248124,0.999693050157027
2.3986993496748372,1.0094944965414243
2.4124062031015505,1.0180297789720647
2.426113056528264,1.0262794408620304
2.439819909954977,1.0344087836390277
2.4535267633816904,1.0376455620586644
2.467233616808404,1.0395093526085906
2.4809404702351174,1.0411108312988384
2.4946473236618307,1.0391695860217822
2.508354177088544,1.035719909464471
2.5220610305152573,1.029975344453332
2.5357678839419706,1.0228785454441454
2.549474737368684,1.0143287211632723
2.5631815907953976,1.0057307509863067
2.576888444222111,0.9955678717381337
2.5905952976488242,0.9864894758568118
2.6043021510755375,0.9789051811683773
2.618009004502251,0.970269001652643
2.631715857928964,0.964761809261614
2.6454227113556774,0.9610469666705068
2.659129564782391,0.9589099084411815
2.6728364182091044,0.9594846786957497
2.6865432716358177,0.9613539128822653
2.700250125062531,0.9664308795371731
2.7139569784892443,0.9727142776144436
2.7276638319159576,0.9798527905174059
2.741370685342671,0.9887889778924152
2.755077538769384,0.997577161277564
2.768784392196098,1.007141641909642
2.7824912456228112,1.0152100815679979
2.7961980990495245,1.024188936986964
2.809904952476238,1.0316440910965896
2.823611805902951,1.0362337629944178
2.8373186593296644,1.0383779468194685
2.8510255127563777,1.0399696503401763
2.8647323661830915,1.039577746493652
2.8784392196098048,1.0359950903917066
2.892146073036518,1.03016671199046
2.9058529264632313,1.02395892346678
2.9195597798899446,1.0161309306887976
2.933266633316658,1.0078958121203612
2.9469734867433712,0.9991380539078253
2.960680340170085,0.9892958023128624
2.9743871935967983,0.9804585594772878
2.9880940470235116,0.9731285432203371
3.001800900450225,0.9688226912850317
3.015507753876938,0.9626022484928374
3.0292146073036514,0.9625308145611392
3.0429214607303647,0.9608820991729073
3.056628314157078,0.9630427887717207
3.0703351675837918,0.9663297044059737
3.084042021010505,0.9718687340189093
3.0977488744372184,0.9784384525977705
3.1114557278639317,0.9873213253569199
3.125162581290645,0.9961847199310632
3.1388694347173582,1.0060871536162812
3.1525762881440715,1.0125119455380505
3.1662831415707853,1.020848557723111
3.1799899949974986,1.028057493870515
3.193696848424212,1.0336964245642937
3.207403701850925,1.0366363632916138
3.2211105552776385,1.0373711671663455
3.2348174087043517,1.0382903801289984
3.248524262131065,1.0350919779555345
3.262231115557779,1.0306788242436116
3.275937968984492,1.0249668216063932
3.2896448224112054,1.0179019967913037
3.3033516758379187,1.0094888665711537
3.317058529264632,1.000969842118538
3.3307653826913453,0.9919434774718905
3.3444722361180586,0.9835606063200396
3.358179089544772,0.9762513257470488
3.3718859429714856,0.9689732984626551
3.385592796398199,0.9664398003122312
3.399299649824912,0.963372655899896
3.4130065032516255,0.9624789205686093
3.4267133566783388,0.9641048592848503
3.440420210105052,0.9677975596155405
3.4541270635317654,0.9731225971353323
3.467833916958479,0.9788422386094124
3.4815407703851924,0.9849745266390839
3.4952476238119057,0.9938433321029533
3.508954477238619,1.0020405835537174
3.5226613306653323,1.0112886797548093
3.5363681840920456,1.0187128872627147
3.550075037518759,1.0245526137885521
3.5637818909454726,1.0295664838470664
3.577488744372186,1.0348660273746926
3.591195597798899,1.0355195914866968
3.6049024512256125,1.0357342834711947
3.6186093046523258,1.0333368529716025
3.632316158079039,1.0299694430212571
3.6460230115057524,1.0247729567620905
3.659729864932466,1.0187571567237044
3.6734367183591794,1.0109617800576123
3.6871435717858927,1.0027763300945316
3.700850425212606,0.9955066905287645
3.7145572786393193,0.9865627650527178
3.7282641320660326,0.9798899216077922
3.741970985492746,0.9736765388255564
3.755677838919459,0.9704749006327674
3.769384692346173,0.9669753694135906
3.783091545772886,0.965908995265447
3.7967983991995995,0.9656275740194995
3.810505252626313,0.9686575054219251
3.824212106053026,0.9737096327855761
3.8379189594797394,0.9788833949765304
3.8516258129064527,0.9844482217007332
3.8653326663331664,0.9933863453809532
3.8790395197598797,0.9985794969813263
3.892746373186593,1.007566975458494
3.9064532266133063,1.0150410013600666
3.9201600800400196,1.0211299386829917
3.933866933466733,1.0265795480861948
3.947573786893446,1.0295930943646157
3.96128064032016,1.032578303642847
3.974987493746873,1.0320644933559222
3.9886943471735865,1.031790507418755
4.0024012006003,1.0288940093859202
4.016108054027013,1.0237708669396353
4.029814907453726,1.0177839227649372
4.04352176088044,1.0126745038049503
4.057228614307153,1.004485693825271
4.070935467733866,0.9975803420341903
4.08464232116058,0.9896069239755819
4.098349174587293,0.9831012700984397
4.112056028014007,0.9783241826362087
4.12576288144072,0.9738507946277475
4.139469734867434,0.9708390983401707
4.153176588294147,0.9690403625416957
4.16688344172086,0.9684264239120891
4.1805902951475735,0.9705705495462746
4.194297148574287,0.975038213423386
4.208004002001,0.9776557813873568
4.221710855427713,0.984885941017663
4.235417708854427,0.9929863866287779
4.24912456228114,0.9986416324041557
4.262831415707853,1.005651222787685
4.276538269134567,1.0107810959472887
4.29024512256128,1.0159181945064473
4.303951975987993,1.022197507154504
4.317658829414707,1.0252709514404568
4.331365682841421,1.027778962883849
4.345072536268134,1.028325292162152
4.358779389694847,1.0276739676442135
4.3724862431215605,1.0261854323692112
4.386193096548274,1.0230998630698742
4.399899949974987,1.018680536781115
4.4136068034017,1.0130472888162803
4.427313656828414,1.0066819232827309
4.441020510255127,1.0000494157823867
4.45472736368184,0.9939936805441661
4.468434217108554,0.9874046526058144
4.482141070535267,0.9819532433977064
4.49584792396198,0.9778086390575278
4.5095547773886935,0.9743106712765871
4.523261630815408,0.9737993775134018
4.536968484242121,0.9732572664660437
4.550675337668834,0.9737380614800334
4.5643821910955475,0.9774783333479587
4.578089044522261,0.9801700339536272
4.591795897948974,0.9852095595856222
4.605502751375687,0.9897098095238633
4.619209604802401,0.995846210017633
4.632916458229114,1.0018500749128485
4.646623311655827,1.0072746744269514
4.660330165082541,1.0131546691193676
4.674037018509254,1.0166286640998419
4.687743871935967,1.0218098974556298
4.7014507253626805,1.0234998552836356
4.715157578789395,1.024812984020249
4.728864432216108,1.0245604457822213
4.742571285642821,1.0238463768452404
4.756278139069535,1.0201376265363418
4.769984992496248,1.0167436812705486
4.783691845922961,1.013536768283682
4.7973986993496744,1.0076392022183154
4.811105552776388,1.0025389812189793
4.824812406203101,0.9980018337906167
4.838519259629814,0.9912241252974755
4.852226113056528,0.9876391273529503
4.865932966483241,0.9831770862517036
4.879639819909954,0.98085521283964
4.8933466733366675,0.9782646586800807
4.907053526763381,0.9763192429195715
4.920760380190095,0.9780215025076423
4.934467233616808,0.9795775018373907
4.948174087043522,0.9812776530597739
4.961880940470235,0.9852077586105443
4.975587793896948,0.9895873509879113
4.9892946473236615,0.9937729473982118
5.003001500750375,0.9976452366810545
5.016708354177088,1.003281817028087
5.030415207603801,1.0089665452467365
5.044122061030515,1.012236156078874
5.057828914457228,1.0151083502879061
5.071535767883941,1.0188415869318985
5.0852426213106545,1.0200784196810013
5.098949474737368,1.0196466801751638
5.112656328164081,1.019777876986271
5.126363181590795,1.0175970909238932
5.140070035017509,1.0168185736917834
5.153776888444222,1.012744676055748
5.167483741870935,1.0094268015339476
5.1811905952976485,1.00417120707114
5.194897448724362,1.000692911669999
5.208604302151075,0.9961069979512104
5.222311155577788,0.9924622143610521
5.236018009004502,0.9885937334358428
5.249724862431215,0.9850852129927545
5.263431715857928,0.9838428506786583
5.2771385692846415,0.9819859695308502
5.290845422711355,0.9817624172303955
5.304552276138068,0.982777182354812
5.318259129564782,0.9836731468149558
5.331965982991496,0.9857696485807951
5.345672836418209,0.9895364081784328
5.359379689844922,0.9906649131834213
5.3730865432716355,0.9959557220129127
5.386793396698349,0.9995091125549034
5.400500250125062,1.0036822180262823
5.414207103551775,1.007469048859632
5.427913956978489,1.0103299558548726
5.441620810405202,1.0119126870261044
5.455327663831915,1.0149467536755672
5.4690345172586285,1.015750871866242
5.482741370685342,1.0162843351859503
5.496448224112055,1.015209751845137
5.510155077538768,1.0137223523019607
5.523861930965483,1.0132613509126438
5.537568784392196,1.0103245519075192
5.551275637818909,1.0076982197538225
5.5649824912456225,1.0044892566324302
5.578689344672336,1.001602831706931
5.592396198099049,0.9971446201562412
5.606103051525762,0.9956883378201133
5.619809904952476,0.9914108309407866
5.633516758379189,0.9900853320368308
5.647223611805902,0.987756828324963
5.660930465232616,0.986874010153738
5.674637318659329,0.9862007437707563
5.688344172086042,0.9862636788071609
5.7020510255127554,0.9877724995695905
5.71575787893947,0.988741217343277
5.729464732366183,0.9912637800636575
5.743171585792896,0.9926935736219225
5.7568784392196095,0.9951278401209518
5.770585292646323,0.9981187900765683
5.784292146073036,1.002621012578049
5.797998999499749,1.00483316270028
5.811705852926463,1.0069825172802445
5.825412706353176,1.0079079045794033
5.839119559779889,1.0111616342375003
5.852826413206603,1.0124982441269308
5.866533266633316,1.0129469695670208
5.880240120060029,1.011599140019304
5.8939469734867425,1.0117061171134736
5.907653826913456,1.0115929763095617
5.92136068034017,1.0090531297300944
5.935067533766883,1.0072042672913848
5.9487743871935965,1.0050254257966522
5.96248124062031,1.0020305930361009
5.976188094047023,0.9996519481152801
5.989894947473736,0.9978997302872843
6.00360180090045,0.995473523484326
6.017308654327163,0.9940328071474906
6.031015507753876,0.9936172317576994
6.04472236118059,0.9900919058385794
6.058429214607303,0.9901732469569622
6.072136068034016,0.9884855550175948
6.0858429214607295,0.9892973725460636
6.099549774887443,0.9896448386205247
6.113256628314156,0.9907650263368559
6.12696348174087,0.9918611221720547
6.1406703351675835,0.9947526859737881
6.154377188594297,0.9959743952292727
6.16808404202101,0.9987711908913015
6.181790895447723,1.00127433716678
6.195497748874437,1.0029397183758768
6.20920460230115,1.0045902359948367
6.222911455727863,1.0063920585431154
6.236618309154577,1.0083630355975293
6.25032516258129,1.0081517532589466
6.264032016008003,1.010184810835881
6.2777388694347165,1.010637514895096
6.29144572286143,1.0094822393330685
6.305152576288143,1.0098669354047816
6.318859429714857,1.0095536099253168
6.3325662831415706,1.0083146119788093
6.346273136568284,1.0064701420850115
6.359979989994997,1.003450678586355
6.37368684342171,1.0027038387349412
6.387393696848424,0.9998573718703049
6.401100550275137,0.9975874608022096
6.41480740370185,0.9951172925216519
6.428514257128564,0.9923612429526992
6.442221110555277,0.9919312262103971
6.45592796398199,0.9903866427624654
6.4696348174087035,0.9889908298961232
6.483341670835417,0.9892919131656085
6.49704852426213,0.9895847733956049
6.510755377688843,0.9897179910736086
6.524462231115558,0.9910693980470804
6.538169084542271,0.9919664302271041
6.551875937968984,0.9949575711793638
6.5655827913956974,0.9969347807905551
6.579289644822411,0.9991835092859146
6.592996498249124,1.001630427583568
6.606703351675837,1.0031997526027696
6.620410205102551,1.0060887595907653
6.634117058529264,1.0087530387603227
6.647823911955977,1.0092572852647266
6.6615307653826905,1.0125992621111812
6.675237618809404,1.0133355877210628
6.688944472236117,1.0127393643075664
6.70265132566283,1.0122607480589163
6.716358179089544,1.0110703610494314
6.730065032516258,1.0106541866092031
6.743771885942971,1.0080398592658677
6.7574787393696845,1.0049817915162393
6.771185592796398,1.0023584853632272
6.784892446223111,0.9991098746985515
6.798599299649824,0.9978572405103882
6.812306153076538,0.9933973159711175
6.826013006503251,0.990552727116008
6.839719859929964,0.9887733203113485
6.8534267133566775,0.9874036584688516
6.867133566783391,0.9862725208839711
6.880840420210104,0.9856516170417249
6.894547273636817,0.985281778774694
6.908254127063531,0.9862995888266056
6.921960980490245,0.987345416821407
6.935667833916958,0.9906666542830257
6.9493746873436715,0.9929125380779704
6.963081540770385,0.9969584063063526
6.976788394197098,1.0001295300204627
6.990495247623811,1.002780816116963
7.004202101050525,1.0076004534420389
7.017908954477238,1.010279302456552
7.031615807903951,1.0130824377858754
7.0453226613306645,1.0150302689802861
7.059029514757378,1.015099860068154
7.072736368184091,1.0165206950330805
7.086443221610804,1.0165841013078767
7.100150075037518,1.0171798608374696
7.113856928464231,1.0138776977246045
7.127563781890945,1.010723113707181
7.1412706353176585,1.0085276300722386
7.154977488744372,1.00413491237495
7.168684342171085,0.9991764257467057
7.182391195597798,0.9965574126437771
7.196098049024512,0.9930572761512154
7.209804902451225,0.9890551976855267
7.223511755877938,0.9855294384526969
7.2372186093046516,0.9838797456644147
7.250925462731365,0.9828723124742268
7.264632316158078,0.9809619983009844
7.278339169584791,0.9814200938879019
7.292046023011505,0.9814029903108923
7.305752876438218,0.9841579659206549
7.319459729864932,0.9876223567539065
7.3331665832916455,0.9910694988496276
7.346873436718359,0.9963305838412265
