time,flux
0.0,1.0339699546897019
0.013706853426713355,1.0294023954634706
0.02741370685342671,1.020571016786914
0.041120560280140064,1.0150255443454983
0.05482741370685342,1.0069584749454814
0.06853426713356678,0.997328914903023
0.08224112056028013,0.9911047245598116
0.09594797398699349,0.9827099361252076
0.10965482741370684,0.9764427547496943
0.1233616808404202,0.9715290442047819
0.13706853426713356,0.9680258985132107
0.1507753876938469,0.9662185519241894
0.16448224112056026,0.9651210767078412
0.1781890945472736,0.9665431020368235
0.19189594797398699,0.968794895298144
0.20560280140070034,0.9723992718474382
0.21930965482741369,0.976656649286007
0.23301650825412704,0.9814906046895134
0.2467233616808404,0.9905945186882879
0.26043021510755376,0.995026112407003
0.2741370685342671,1.0032096636664583
0.28784392196098046,1.0088200472685565
0.3015507753876938,1.0151268157644808
0.31525762881440716,1.0175632286583707
0.3289644822411205,1.0202741338636727
0.34267133566783387,1.0242837423874158
0.3563781890945472,1.0244818386021044
0.3700850425212606,1.026593786255631
0.38379189594797397,1.0260315374439604
0.3974987493746873,1.024236089049499
0.41120560280140067,1.0204772367594912
0.424912456228114,1.0175159243992205
0.43861930965482737,1.014951619330067
0.4523261630815407,1.010926689079988
0.46603301650825407,1.0048222095845762
0.4797398699349674,1.0024898840792302
0.4934467233616808,0.9964124880673246
0.5071535767883941,0.9940654230622162
0.5208604302151075,0.9903640817059836
0.5345672836418208,0.988221807112602
0.5482741370685342,0.9878697705731273
0.5619809904952475,0.9871425251930058
0.5756878439219609,0.9783371536964393
0.5893946973486743,0.985154033078529
0.6031015507753876,0.9867133243711602
0.616808404202101,0.9885780086632175
0.6305152576288143,0.9889284424505616
0.6442221110555277,0.9898272629449597
0.657928964482241,0.9911088052476184
0.6716358179089544,0.9946303483860219
0.6853426713356677,0.9949630406850578
0.6990495247623811,0.9976362020990668
0.7127563781890944,0.9994769894928404
0.7264632316158078,1.0005721949932085
0.7401700850425212,1.0001518411247556
0.7538769384692345,1.0014603251332468
0.7675837918959479,1.002226625203293
0.7812906453226612,1.0012234263381228
0.7949974987493746,1.0026568003488765
0.8087043521760879,1.0052657919873333
0.8224112056028013,1.0065675218797872
0.8361180590295146,1.006664218175939
0.849824912456228,1.0070910376425508
0.8635317658829413,1.0090191315712838
0.8772386193096547,1.0070115964010584
0.8909454727363681,1.0092246839934353
0.9046523261630814,1.010724758946128
0.9183591795897948,1.0109850637093838
0.9320660330165081,1.0121152893348304
0.9457728864432215,1.010834411607435
0.9594797398699348,1.0111480746950712
0.9731865932966483,1.0096368089637389
0.9868934467233615,1.0051571407919004
1.000600300150075,1.005969847950568
1.0143071535767882,1.0030096212354185
1.0280140070035018,1.0030417245093037
1.041720860430215,0.9983703804665681
1.0554277138569284,0.9936361630576233
1.0691345672836416,0.9915059089745991
1.0828414207103552,0.9878376251226528
1.0965482741370685,0.9849221734093143
1.1102551275637818,0.9808876534982109
1.123961980990495,0.9796002131513665
1.1376688344172086,0.9779740229492717
1.1513756878439219,0.9786594859824975
1.1650825412706352,0.9782724499228621
1.1787893946973487,0.9758736647379295
1.192496248124062,0.9821784181545086
1.2062031015507753,0.9845579620550594
1.2199099549774886,0.9871639218330939
1.233616808404202,0.9922977535766818
1.2473236618309154,0.9994655516165752
1.2610305152576287,1.0045409802558842
1.274737368684342,1.0102194898749377
1.2884442221110555,1.0169680763286073
1.3021510755377688,1.021018708047849
1.315857928964482,1.0266462966529235
1.3295647823911956,1.0298665809143799
1.3432716358179089,1.0321846421145544
1.3569784892446222,1.0328234610555171
1.3706853426713355,1.0310988651868866
1.384392196098049,1.0287215738822266
1.3980990495247623,1.0298278110677037
1.4118059029514756,1.0228216657753493
1.4255127563781889,1.0179517236255595
1.4392196098049024,1.0104011552506178
1.4529264632316157,1.0032108058393192
1.466633316658329,0.9953664698106541
1.4803401700850425,0.9875501945341418
1.4940470235117558,0.9796208014902366
1.507753876938469,0.9753435942509517
1.5214607303651824,0.9694753353231781
1.5351675837918959,0.9642650189894142
1.5488744372186092,0.9616365838230255
1.5625812906453225,0.9607151566875629
1.5762881440720358,0.9622994988777746
1.5899949974987493,0.9626032184407153
1.6037018509254626,0.9684767353993898
1.6174087043521759,0.9728709055931876
1.6311155577788894,0.9797026344124409
1.6448224112056027,0.9874358352800953
1.658529264632316,0.9952983082264975
1.6722361180590293,1.0055317976749307
1.6859429714857428,1.0146125628182576
1.699649824912456,1.0235350381658206
1.7133566783391694,1.0289966684925107
1.7270635317658827,1.0365099539338278
1.7407703851925962,1.0391302223080143
1.7544772386193095,1.0437387716535798
1.7681840920460228,1.0422326918001037
1.7818909454727363,1.0398291813908014
1.7955977988994496,1.0395493818734804
1.8093046523261629,1.0347571247461707
1.8230115057528762,1.0307962581945984
1.8367183591795897,1.020855171158993
1.850425212606303,1.0136479183505833
1.8641320660330163,1.00128170546014
1.8778389194597296,0.99454967694891
1.891545772886443,0.9842775932316381
1.9052526263131564,0.9759819653204986
1.9189594797398697,0.9700453457334347
1.9326663331665832,0.9637988297403697
1.9463731865932965,0.9592323456984228
1.9600800400200098,0.9579844333628412
1.973786893446723,0.9570778073527527
1.9874937468734366,0.9569570471648501
2.00120060030015,0.9628960608563185
2.014907453726863,0.9657820614693313
2.0286143071535765,0.9738346226986165
2.04232116058029,0.9806341623300711
2.0560280140070035,0.9888122449950879
2.069734867433717,0.9989838463367391
2.08344172086043,1.0081098801893815
2.0971485742871434,1.0163891702176397
2.1108554277138567,1.0227244786267466
2.12456228114057,1.0310379399277212
2.1382691345672833,1.0352028306965722
2.1519759879939966,1.036207643084958
2.1656828414207103,1.0392849466388492
2.1793896948474236,1.039341254378392
2.193096548274137,1.0376045522535027
2.20680340170085,1.0346539355031614
2.2205102551275635,1.0287992790291047
2.234217108554277,1.0238371392229193
2.24792396198099,1.0162922428198913
2.261630815407704,1.0096722515604717
2.275337668834417,1.000821975359257
2.2890445222611304,0.9939817250211984
2.3027513756878437,0.9873088190647984
2.316458229114557,0.9807265017923658
2.3301650825412703,0.9741556370898868
2.3438719359679836,0.9707675142113954
2.3575787893946973,0.9672728115175051
2.3712856428214106,0.9669733343811767
2.384992496248124,0.9673631926242524
2.3986993496748372,0.9685313402904555
2.4124062031015505,0.9721307458225217
2.426113056528264,0.9754734438622406
2.439819909954977,0.9810375792888945
2.4535267633816904,0.9863656444397938
2.467233616808404,0.9912183103208734
2.4809404702351174,0.9985611595167332
2.4946473236618307,1.0038748414131369
2.508354177088544,1.0096718688449202
2.5220610305152573,1.0149947334125176
2.5357678839419706,1.01830630870403
2.549474737368684,1.021898304424151
2.5631815907953976,1.023115510893652
2.576888444222111,1.0237337909583217
2.5905952976488242,1.0224143019590313
2.6043021510755375,1.0236572580469399
2.618009004502251,1.0199913212211893
2.631715857928964,1.0179562195060898
2.6454227113556774,1.015303456961658
2.659129564782391,1.0119055788225548
2.6728364182091044,1.0064683104244045
2.6865432716358177,1.0020932276069974
2.700250125062531,1.0014624743122904
2.7139569784892443,0.9978964272346056
2.7276638319159576,0.9930335095058311
2.741370685342671,0.9905172877836907
2.755077538769384,0.9880111487362322
2.768784392196098,0.9884207616176391
2.7824912456228112,0.9862902311584861
2.7961980990495245,0.9886720080448733
2.809904952476238,0.98816927360731
2.823611805902951,0.9874482797032382
2.8373186593296644,0.9876280760808709
2.8510255127563777,0.991461950202723
2.8647323661830915,0.9911032026100637
2.8784392196098048,0.9915865265985143
2.892146073036518,0.9952179629704009
2.9058529264632313,0.9942282000796782
2.9195597798899446,0.9965885571660245
2.933266633316658,0.9962307186185604
2.9469734867433712,0.9980629985981748
2.960680340170085,0.9999902498819918
2.9743871935967983,0.9977849620883097
2.9880940470235116,0.9996156002318076
3.001800900450225,0.9998492058960158
3.015507753876938,1.0019690203726412
3.0292146073036514,1.0047338447881453
3.0429214607303647,1.0042836223677696
3.056628314157078,1.0049564199089023
3.0703351675837918,1.0057673858524867
3.084042021010505,1.0106567804526758
3.0977488744372184,1.0104116501062097
3.1114557278639317,1.0102860718136368
3.125162581290645,1.0117780176032634
3.1388694347173582,1.0128233871174128
3.1525762881440715,1.0150853286329917
3.1662831415707853,1.0133820060855898
3.1799899949974986,1.0124986647408287
3.193696848424212,1.0133396065415836
3.207403701850925,1.0101082259200465
3.2211105552776385,1.0075531726601312
3.2348174087043517,1.0030445112784026
3.248524262131065,1.0023631420340084
3.262231115557779,0.998298326703292
3.275937968984492,0.9920334310923917
3.2896448224112054,0.9888341130806143
3.3033516758379187,0.9853224703961666
3.317058529264632,0.9842092079634959
3.3307653826913453,0.9790951468096791
3.3444722361180586,0.9771248955513544
3.358179089544772,0.977785253896789
3.3718859429714856,0.9755990704064642
3.385592796398199,0.9766918565656447
3.399299649824912,0.9761738373867549
3.4130065032516255,0.9790693698034159
3.4267133566783388,0.9820423642370282
3.440420210105052,0.9909549468752304
3.4541270635317654,0.995251838480682
3.467833916958479,1.0010470376658436
3.4815407703851924,1.0076571751396677
3.4952476238119057,1.012675730839436
3.508954477238619,1.0190712730863718
3.5226613306653323,1.0256352775685404
3.5363681840920456,1.0296943394096565
3.550075037518759,1.0311193833080798
3.5637818909454726,1.0339419991869625
3.577488744372186,1.0339858846832402
3.591195597798899,1.0317509894294998
3.6049024512256125,1.0298985641121803
3.6186093046523258,1.0259835131810908
3.632316158079039,1.022018595628799
3.6460230115057524,1.014705135445156
3.659729864932466,1.0080229758325472
3.6734367183591794,0.9999466676118733
3.6871435717858927,0.990729644220464
3.700850425212606,0.984129571462409
3.7145572786393193,0.9771102040484823
3.7282641320660326,0.970643235042667
3.741970985492746,0.9634191244309399
3.755677838919459,0.9605822190041712
3.769384692346173,0.9588089178709707
3.783091545772886,0.9587496850168119
3.7967983991995995,0.9616173578569194
3.810505252626313,0.9638116178032142
3.824212106053026,0.9691096952037197
3.8379189594797394,0.9773487558216618
3.8516258129064527,0.9835956867517096
3.8653326663331664,0.991324897388378
3.8790395197598797,1.0030084213765356
3.892746373186593,1.0089175159028003
3.9064532266133063,1.0195290103196537
3.9201600800400196,1.026331227322822
3.933866933466733,1.0328832695641013
3.947573786893446,1.0398999337834625
3.96128064032016,1.0414467750571674
3.974987493746873,1.044027053291632
3.9886943471735865,1.0409379489709938
4.0024012006003,1.0419973309849784
4.016108054027013,1.0375207204752803
4.029814907453726,1.0301563483542342
4.04352176088044,1.0237477173880596
4.057228614307153,1.0144019838154523
4.070935467733866,1.0062398843220979
4.08464232116058,0.9980151655887509
4.098349174587293,0.9888832487123168
4.112056028014007,0.9786229371016572
4.12576288144072,0.9717372073059088
4.139469734867434,0.9658900302089003
4.153176588294147,0.9603554097027742
4.16688344172086,0.9580488076991966
4.1805902951475735,0.9584073592194834
4.194297148574287,0.9575467544148509
4.208004002001,0.9595480725565181
4.221710855427713,0.9674765257000203
4.235417708854427,0.969908577032782
4.24912456228114,0.9760541403159276
4.262831415707853,0.9854357945903134
4.276538269134567,0.9955004266486063
4.29024512256128,1.0033178819721313
4.303951975987993,1.0121830123241287
4.317658829414707,1.0204989734547292
4.331365682841421,1.0278707665172402
4.345072536268134,1.0339674957854545
4.358779389694847,1.0370590452348216
4.3724862431215605,1.0384299791484901
4.386193096548274,1.0392618301369334
4.399899949974987,1.0379771903647323
4.4136068034017,1.0363442024182434
4.427313656828414,1.0303102696846802
4.441020510255127,1.0250023908132577
4.45472736368184,1.0222279868885902
4.468434217108554,1.0127984078853083
4.482141070535267,1.0047419831674482
4.49584792396198,0.9966648726866059
4.5095547773886935,0.9914163689106773
4.523261630815408,0.9850655534363302
4.536968484242121,0.9789464147024057
4.550675337668834,0.9765189696201503
4.5643821910955475,0.9710357965292451
4.578089044522261,0.9685232852300963
4.591795897948974,0.9695636144008762
4.605502751375687,0.9694619195740716
4.619209604802401,0.9710829778900875
4.632916458229114,0.9760663433126061
4.646623311655827,0.9795142916879803
4.660330165082541,0.9840853768685552
4.674037018509254,0.9898144151349886
4.687743871935967,0.9970846631130506
4.7014507253626805,1.0011467225174384
4.715157578789395,1.006357985479542
4.728864432216108,1.008827846233677
4.742571285642821,1.0143318738314129
4.756278139069535,1.0203812674082056
4.769984992496248,1.0204909824123851
4.783691845922961,1.0213043022575645
4.7973986993496744,1.0214615356207268
4.811105552776388,1.02138633432648
4.824812406203101,1.0185166523934432
4.838519259629814,1.0160337186650656
4.852226113056528,1.0147384520179998
4.865932966483241,1.0114543474953979
4.879639819909954,1.0069519484880871
4.8933466733366675,1.0058162464221028
4.907053526763381,1.0028134229856718
4.920760380190095,0.9992799492937673
4.934467233616808,1.0003047306401605
4.948174087043522,0.9943158643914215
4.961880940470235,0.9918337418128309
4.975587793896948,0.9915020375984702
4.9892946473236615,0.9909265162480025
5.003001500750375,0.988330138247224
5.016708354177088,0.9884625375139313
5.030415207603801,0.9900115032072203
5.044122061030515,0.9901409716788918
5.057828914457228,0.992195919178907
5.071535767883941,0.991796172971388
5.0852426213106545,0.9930712523657752
5.098949474737368,0.9936871192760889
5.112656328164081,0.9951459988831234
5.126363181590795,0.9932226451914203
5.140070035017509,0.9932990096608729
5.153776888444222,0.9963358422546681
5.167483741870935,0.9949986408901003
5.1811905952976485,0.9949853373721773
5.194897448724362,0.9954049655724243
5.208604302151075,0.9975615237902097
5.222311155577788,0.9990623087707242
5.236018009004502,1.0019722778310398
5.249724862431215,1.0045993971690357
5.263431715857928,1.0051520646316414
5.2771385692846415,1.0034826482163322
5.290845422711355,1.0088211898904889
5.304552276138068,1.0105121916168618
5.318259129564782,1.0135617859027224
5.331965982991496,1.0135019235381277
5.345672836418209,1.0160741888604228
5.359379689844922,1.0145933656784323
5.3730865432716355,1.0143481008432336
5.386793396698349,1.015080134680097
5.400500250125062,1.015469343950923
5.414207103551775,1.0145222696954794
5.427913956978489,1.0107528177687166
5.441620810405202,1.0053521524835578
5.455327663831915,1.0040159035210612
5.4690345172586285,0.9987112514176462
5.482741370685342,0.9947423699677954
5.496448224112055,0.9912696371961679
5.510155077538768,0.9861263621694815
5.523861930965483,0.981790217944338
5.537568784392196,0.9781524022161654
5.551275637818909,0.972754592706336
5.5649824912456225,0.9735799068505891
5.578689344672336,0.9729850725662588
5.592396198099049,0.9730388899270064
5.606103051525762,0.9734755072418162
5.619809904952476,0.9768622781095163
5.633516758379189,0.9819292981550861
5.647223611805902,0.9883167493694467
5.660930465232616,0.9921803059791117
5.674637318659329,1.000229098174708
5.688344172086042,1.0037065671441259
5.7020510255127554,1.0111823866671046
5.71575787893947,1.017859980086718
5.729464732366183,1.023849423362794
5.743171585792896,1.028500975144653
5.7568784392196095,1.0327535191419612
5.770585292646323,1.033763519772464
5.784292146073036,1.0369623124295453
5.797998999499749,1.0362058280709838
5.811705852926463,1.0332128789631816
5.825412706353176,1.0288265723966894
5.839119559779889,1.0236350739699842
5.852826413206603,1.0190271337345944
5.866533266633316,1.0109563370100618
5.880240120060029,1.0037086119739573
5.8939469734867425,0.9953952608368016
5.907653826913456,0.985952469595515
5.92136068034017,0.9805628079893735
5.935067533766883,0.9729125720953881
5.9487743871935965,0.9659358697812886
5.96248124062031,0.963931835016542
5.976188094047023,0.958571609262126
5.989894947473736,0.9586584585131794
6.00360180090045,0.9594904864585602
6.017308654327163,0.9615475835707634
6.031015507753876,0.9694019571363331
6.04472236118059,0.9720929592003279
6.058429214607303,0.9794845236654206
6.072136068034016,0.9872608300449013
6.0858429214607295,0.9989309449266738
6.099549774887443,1.0067912286715692
6.113256628314156,1.0151020366337102
6.12696348174087,1.022621518962417
6.1406703351675835,1.0317052567702065
6.154377188594297,1.0375211007094174
6.16808404202101,1.043027271389649
6.181790895447723,1.0438462749243493
6.195497748874437,1.043190684844161
6.20920460230115,1.0435627662212317
6.222911455727863,1.0406685641326425
6.236618309154577,1.0344448744381796
6.25032516258129,1.027989475795917
6.264032016008003,1.0203461338295896
6.2777388694347165,1.011376447432929
6.29144572286143,1.0019496288035672
6.305152576288143,0.9933615212958881
6.318859429714857,0.9827850171330167
6.3325662831415706,0.974343585688589
6.346273136568284,0.9696014942721756
6.359979989994997,0.9644414643557738
6.37368684342171,0.9581124129785437
6.387393696848424,0.9563810141947942
6.401100550275137,0.9565897156309456
6.41480740370185,0.9588286352472148
6.428514257128564,0.9638153890938194
6.442221110555277,0.9684859172808732
6.45592796398199,0.9725082558722112
6.4696348174087035,0.9824089540822879
6.483341670835417,0.9893787105698635
6.49704852426213,0.9990581218415967
6.510755377688843,1.0076659434089932
6.524462231115558,1.01661158461751
6.538169084542271,1.0226743871603594
6.551875937968984,1.0283552061143673
6.5655827913956974,1.0353427729247966
6.579289644822411,1.034647065384041
6.592996498249124,1.0384885424679529
6.606703351675837,1.038496477869279
6.620410205102551,1.0361260883890773
6.634117058529264,1.0336263704366746
6.647823911955977,1.0279965021839665
6.6615307653826905,1.0211661532837768
6.675237618809404,1.0142413449749805
6.688944472236117,1.0054920734769242
6.70265132566283,1.0010254031181585
6.716358179089544,0.9945011111832901
6.730065032516258,0.9873059790335931
6.743771885942971,0.9829124482781585
6.7574787393696845,0.9759453033080903
6.771185592796398,0.9728859311393873
6.784892446223111,0.9710970749616656
6.798599299649824,0.9687555889234134
6.812306153076538,0.9703709071471919
6.826013006503251,0.9729095693480012
6.839719859929964,0.9751791591626349
6.8534267133566775,0.9781526993964218
6.867133566783391,0.9826880326374253
6.880840420210104,0.9880388913254539
6.894547273636817,0.9935125034566028
6.908254127063531,0.9980371998048511
6.921960980490245,1.0025408188801592
6.935667833916958,1.0067825843546878
6.9493746873436715,1.0117913276775858
6.963081540770385,1.0165272700963826
6.976788394197098,1.0173902052935957
6.990495247623811,1.0186959196829313
7.004202101050525,1.0186039561894011
7.017908954477238,1.0200939178680226
7.031615807903951,1.0177119150731184
7.0453226613306645,1.0177430588736327
7.059029514757378,1.015131617559005
7.072736368184091,1.0122016929959643
7.086443221610804,1.0090880251278673
7.100150075037518,1.007021808463334
7.113856928464231,1.004011194296242
7.127563781890945,1.0015972469951029
7.1412706353176585,0.9985050955248477
7.154977488744372,0.9986143136558447
7.168684342171085,0.9934633152786518
7.182391195597798,0.9971215707449584
7.196098049024512,0.9922391332360203
7.209804902451225,0.992870010332226
7.223511755877938,0.991312773467485
7.2372186093046516,0.993300957858045
7.250925462731365,0.9929183209099571
7.264632316158078,0.9916986461637304
7.278339169584791,0.9936350523976396
7.292046023011505,0.9919992865269064
7.305752876438218,0.9929520921539644
7.319459729864932,0.9923012785793764
7.3331665832916455,0.9920074398485729
