time,flux
0.0,1.0385155207199401
0.013706853426713355,1.0335660990291256
0.02741370685342671,1.027436587449403
0.041120560280140064,1.0194022810303878
0.05482741370685342,1.0099161852017533
0.06853426713356678,0.9998047123031525
0.08224112056028013,0.9905490882354797
0.09594797398699349,0.9824296725746382
0.10965482741370684,0.974236261899203
0.1233616808404202,0.9666792888987288
0.13706853426713356,0.9636339745394848
0.1507753876938469,0.9604960894048878
0.16448224112056026,0.9617863188465166
0.1781890945472736,0.9631903258875106
0.19189594797398699,0.9664629557722284
0.20560280140070034,0.973854280873149
0.21930965482741369,0.9826297540950123
0.23301650825412704,0.9903139707879418
0.2467233616808404,0.9999920648168942
0.26043021510755376,1.0094870875804216
0.2741370685342671,1.0182263238765858
0.28784392196098046,1.0254179691649474
0.3015507753876938,1.0304349591907311
0.31525762881440716,1.0345864970773437
0.3289644822411205,1.0372855068607114
0.34267133566783387,1.0365198188431783
0.3563781890945472,1.032573952507461
0.3700850425212606,1.0290528348718533
0.38379189594797397,1.0242478621953004
0.3974987493746873,1.0154540478496932
0.41120560280140067,1.0070976317454061
0.424912456228114,0.9994546897050431
0.43861930965482737,0.9924058586971521
0.4523261630815407,0.9835394021163468
0.46603301650825407,0.9773286154519489
0.4797398699349674,0.9722654977907861
0.4934467233616808,0.97009960232783
0.5071535767883941,0.9694504445278559
0.5208604302151075,0.9699247532052968
0.5345672836418208,0.9723837895490361
0.5482741370685342,0.9782609961822202
0.5619809904952475,0.982916281944758
0.5756878439219609,0.9882418776743378
0.5893946973486743,0.995407630853798
0.6031015507753876,1.0026684244944615
0.616808404202101,1.0101125208799175
0.6305152576288143,1.0142511423743257
0.6442221110555277,1.0201565487792983
0.657928964482241,1.0219100581074372
0.6716358179089544,1.0227132404563302
0.6853426713356677,1.0245427583390099
0.6990495247623811,1.0220958423704094
0.7127563781890944,1.0199565185058126
0.7264632316158078,1.015458323197945
0.7401700850425212,1.0101036924811495
0.7538769384692345,1.005533496236452
0.7675837918959479,0.999230454435466
0.7812906453226612,0.995007120011772
0.7949974987493746,0.990128495045152
0.8087043521760879,0.9875160531304432
0.8224112056028013,0.9833408880043409
0.8361180590295146,0.9830538313783873
0.849824912456228,0.9838768545599267
0.8635317658829413,0.9850620034775103
0.8772386193096547,0.9866573606942531
0.8909454727363681,0.990078197009121
0.9046523261630814,0.994136332883082
0.9183591795897948,0.9986375896370348
0.9320660330165081,1.0030232826090573
0.9457728864432215,1.0067782363444193
0.9594797398699348,1.0091185013732271
0.9731865932966483,1.0105754679031231
0.9868934467233615,1.0131585595753667
1.000600300150075,1.013315327968552
1.0143071535767882,1.0118825618762433
1.0280140070035018,1.0106434157305808
1.041720860430215,1.007251320974917
1.0554277138569284,1.003943174157988
1.0691345672836416,0.9991366478390281
1.0828414207103552,0.9971257042086551
1.0965482741370685,0.9926142587161342
1.1102551275637818,0.9897994187999946
1.123961980990495,0.9882064585429448
1.1376688344172086,0.9857123254786183
1.1513756878439219,0.9873955750074189
1.1650825412706352,0.9880014387883946
1.1787893946973487,0.9896660549861349
1.192496248124062,0.991643534533368
1.2062031015507753,0.9964341085222518
1.2199099549774886,1.0000572150630616
1.233616808404202,1.0057199891673407
1.2473236618309154,1.0089561167159413
1.2610305152576287,1.0135704877068772
1.274737368684342,1.0154633809075766
1.2884442221110555,1.0190768370854124
1.3021510755377688,1.019568695077437
1.315857928964482,1.0178942108515268
1.3295647823911956,1.01527775857331
1.3432716358179089,1.0134163987855231
1.3569784892446222,1.0085370473306485
1.3706853426713355,1.0035927857605924
1.384392196098049,0.9980868910085711
1.3980990495247623,0.9933625308626806
1.4118059029514756,0.9867614414453224
1.4255127563781889,0.9815127439320682
1.4392196098049024,0.9791221531528836
1.4529264632316157,0.9759061214586858
1.466633316658329,0.9739492735995833
1.4803401700850425,0.9744566243531539
1.4940470235117558,0.9760547902168727
1.507753876938469,0.9803593726944365
1.5214607303651824,0.9854930019681234
1.5351675837918959,0.9919368878430719
1.5488744372186092,0.9999369077312454
1.5625812906453225,1.0064027673086835
1.5762881440720358,1.0130858691185016
1.5899949974987493,1.020400740184644
1.6037018509254626,1.0261252651657917
1.6174087043521759,1.0291230985588877
1.6311155577788894,1.0323079185295774
1.6448224112056027,1.0331685088051754
1.658529264632316,1.0313528915494719
1.6722361180590293,1.027895720839969
1.6859429714857428,1.0231175379569073
1.699649824912456,1.0153931454400975
1.7133566783391694,1.0082485881803789
1.7270635317658827,0.9987838792984082
1.7407703851925962,0.9902544703779842
1.7544772386193095,0.9817332616469039
1.7681840920460228,0.9754946251281794
1.7818909454727363,0.9686273720691398
1.7955977988994496,0.9651129314473117
1.8093046523261629,0.9639020399936035
1.8230115057528762,0.9619935669181038
1.8367183591795897,0.9656215926332334
1.850425212606303,0.9692618372976154
1.8641320660330163,0.9750419555588595
1.8778389194597296,0.9838559915706622
1.891545772886443,0.9923168643210347
1.9052526263131564,1.0024296842677198
1.9189594797398697,1.0127286618560676
1.9326663331665832,1.0208739079082245
1.9463731865932965,1.0281451440248115
1.9600800400200098,1.035435303477338
1.973786893446723,1.0387725518353927
1.9874937468734366,1.0403275967480228
2.00120060030015,1.0336897289468288
2.014907453726863,1.0382804127754108
2.0286143071535765,1.0317230988188733
2.04232116058029,1.024720078168702
2.0560280140070035,1.0168455998229786
2.069734867433717,1.0076616258021525
2.08344172086043,0.9967518435823546
2.0971485742871434,0.9871675557375247
2.1108554277138567,0.9791054225232388
2.12456228114057,0.9718397881039987
2.1382691345672833,0.9646516101907265
2.1519759879939966,0.9611646711777064
2.1656828414207103,0.9588884582192058
2.1793896948474236,0.9597501289097633
2.193096548274137,0.9635601509981785
2.20680340170085,0.968230152907421
2.2205102551275635,0.9749169252864958
2.234217108554277,0.9836128949720031
2.24792396198099,0.9936637331479555
2.261630815407704,1.0030144722630692
2.275337668834417,1.0127158790858477
2.2890445222611304,1.019483442165882
2.3027513756878437,1.0282783988144804
2.316458229114557,1.0344479250173868
2.3301650825412703,1.0390811382825338
2.3438719359679836,1.0394561629047878
2.3575787893946973,1.038089541272133
2.3712856428214106,1.035954327070861
2.384992496248124,1.0296455113174972
2.3986993496748372,1.0231565962614606
2.4124062031015505,1.0154248698256558
2.426113056528264,1.0061747249557624
2.439819909954977,0.9973666666034275
2.4535267633816904,0.9885909401081268
2.467233616808404,0.9793597381260748
2.4809404702351174,0.9750208352087387
2.4946473236618307,0.9695598727491703
2.508354177088544,0.9663128318689016
2.5220610305152573,0.9656400662137561
2.5357678839419706,0.9672362867271046
2.549474737368684,0.9706236677449209
2.5631815907953976,0.9748438000214651
2.576888444222111,0.981335891596156
2.5905952976488242,0.9886470133835218
2.6043021510755375,0.9969448090863129
2.618009004502251,1.0038274923852264
2.631715857928964,1.0109559122937648
2.6454227113556774,1.0187795585615271
2.659129564782391,1.0232521769535297
2.6728364182091044,1.0263973813540812
2.6865432716358177,1.0289282744458574
2.700250125062531,1.028594511382284
2.7139569784892443,1.0264036010879765
2.7276638319159576,1.0239913342190703
2.741370685342671,1.018050362975104
2.755077538769384,1.012269375317717
2.768784392196098,1.0063107077993632
2.7824912456228112,1.0005418573997111
2.7961980990495245,0.9951657886360261
2.809904952476238,0.9889246025804346
2.823611805902951,0.9854860037403312
2.8373186593296644,0.9816706941970113
2.8510255127563777,0.9793893553885868
2.8647323661830915,0.977725219766808
2.8784392196098048,0.9790953289557519
2.892146073036518,0.9821439777882065
2.9058529264632313,0.9862654587135838
2.9195597798899446,0.9908667024614441
2.933266633316658,0.9944304597376138
2.9469734867433712,0.9981024515347322
2.960680340170085,1.0041792909481717
2.9743871935967983,1.0078918479515844
2.9880940470235116,1.0113658195664763
3.001800900450225,1.0144026663316508
3.015507753876938,1.0157789103836303
3.0292146073036514,1.0155854928335157
3.0429214607303647,1.014640190372436
3.056628314157078,1.0132286902046301
3.0703351675837918,1.0100574164644973
3.084042021010505,1.0039623863579068
3.0977488744372184,1.0015429457692187
3.1114557278639317,0.9981215076065251
3.125162581290645,0.9943257389864963
3.1388694347173582,0.9922091937302979
3.1525762881440715,0.9886731654656398
3.1662831415707853,0.9866439128244296
3.1799899949974986,0.9869293997915302
3.193696848424212,0.9898510359470996
3.207403701850925,0.9913400043266601
3.2211105552776385,0.9930473770796682
3.2348174087043517,0.9971788782451436
3.248524262131065,1.0014236910953331
3.262231115557779,1.0052822974966942
3.275937968984492,1.0092274602881048
3.2896448224112054,1.012171766974326
3.3033516758379187,1.0138133371652536
3.317058529264632,1.0147290942485148
3.3307653826913453,1.0145678305557937
3.3444722361180586,1.013549502633873
3.358179089544772,1.0124196260747422
3.3718859429714856,1.0080279182129914
3.385592796398199,1.00425084334333
3.399299649824912,1.0003645593828272
3.4130065032516255,0.9961413090948124
3.4267133566783388,0.9907735960317188
3.440420210105052,0.9859530974961157
3.4541270635317654,0.9828560206999407
3.467833916958479,0.9804392439398146
3.4815407703851924,0.9785473916955749
3.4952476238119057,0.9782873485523095
3.508954477238619,0.9798903598613513
3.5226613306653323,0.9834467730866477
3.5363681840920456,0.9879407467755175
3.550075037518759,0.9942184256472202
3.5637818909454726,1.0000000986625193
3.577488744372186,1.005669594221324
3.591195597798899,1.0116792608000904
3.6049024512256125,1.0187056719248
3.6186093046523258,1.0231237967779934
3.632316158079039,1.0272297760200737
3.6460230115057524,1.0273231116766195
3.659729864932466,1.028611202964934
3.6734367183591794,1.0267129461550721
3.6871435717858927,1.0226981478467576
3.700850425212606,1.0177784911253753
3.7145572786393193,1.0130741600815136
3.7282641320660326,1.004796326705705
3.741970985492746,0.9973160085437374
3.755677838919459,0.9890192337407301
3.769384692346173,0.9815899291673276
3.783091545772886,0.9760497768804682
3.7967983991995995,0.9707562539638354
3.810505252626313,0.9662345771070983
3.824212106053026,0.9664107813036027
3.8379189594797394,0.9667456583637875
3.8516258129064527,0.9683819821566113
3.8653326663331664,0.9729045650218844
3.8790395197598797,0.9795112893731187
3.892746373186593,0.9870630716033821
3.9064532266133063,0.9970749743726365
3.9201600800400196,1.005241249760358
3.933866933466733,1.0135786421734339
3.947573786893446,1.0222402344921875
3.96128064032016,1.028427589711218
3.974987493746873,1.0346183282949737
3.9886943471735865,1.0367176624581749
4.0024012006003,1.0392475915530397
4.016108054027013,1.0377174145050245
4.029814907453726,1.0356054938376797
4.04352176088044,1.0294500341122554
4.057228614307153,1.02155083504503
4.070935467733866,1.0136669316245484
4.08464232116058,1.0036549757781552
4.098349174587293,0.9947472492068044
4.112056028014007,0.9828701378719074
4.12576288144072,0.9755144071051027
4.139469734867434,0.9695208122545806
4.153176588294147,0.9630469414845919
4.16688344172086,0.9595403721804265
4.1805902951475735,0.9584684250033783
4.194297148574287,0.9606023787099223
4.208004002001,0.9644154178015908
4.221710855427713,0.9699784077958533
4.235417708854427,0.9762409192729966
4.24912456228114,0.9861188336898058
4.262831415707853,0.9945908206991402
4.276538269134567,1.0069126247421167
4.29024512256128,1.014779990230936
4.303951975987993,1.0255119393706498
4.317658829414707,1.0309283157296816
4.331365682841421,1.0358529173908315
4.345072536268134,1.039415796058104
4.358779389694847,1.0399337064212661
4.3724862431215605,1.0389050623964513
4.386193096548274,1.0346381355647505
4.399899949974987,1.0294473335229744
4.4136068034017,1.0215996299771715
4.427313656828414,1.012649794818728
4.441020510255127,1.0037177545287757
4.45472736368184,0.9930952063070863
4.468434217108554,0.9845094488783124
4.482141070535267,0.9767457721961569
4.49584792396198,0.9701735469046147
4.5095547773886935,0.9660592596252745
4.523261630815408,0.9623639358515931
4.536968484242121,0.9629805832550238
4.550675337668834,0.9638898598174775
4.5643821910955475,0.9676161235197779
4.578089044522261,0.9743992236270844
4.591795897948974,0.9820334505209481
4.605502751375687,0.98948816140922
4.619209604802401,0.998159192362889
4.632916458229114,1.0076592582625152
4.646623311655827,1.014145393455832
4.660330165082541,1.0219673362514188
4.674037018509254,1.0264539793350387
4.687743871935967,1.0311662161324182
4.7014507253626805,1.0329270899357574
4.715157578789395,1.0323502990402678
4.728864432216108,1.0297228367836186
4.742571285642821,1.0264387131398276
4.756278139069535,1.0229694683110082
4.769984992496248,1.0145623760635143
4.783691845922961,1.0060620914738467
4.7973986993496744,1.0008187449726722
4.811105552776388,0.9926777235641269
4.824812406203101,0.9850943359627483
4.838519259629814,0.9807855232412527
4.852226113056528,0.9787359413975729
4.865932966483241,0.9755281754799435
4.879639819909954,0.9735277027274287
4.8933466733366675,0.9742273902261405
4.907053526763381,0.9767735742974188
4.920760380190095,0.9825485559318855
4.934467233616808,0.9866816166098699
4.948174087043522,0.9927356843977873
4.961880940470235,0.9965007235040767
4.975587793896948,1.0022742257167625
4.9892946473236615,1.0091096828843613
5.003001500750375,1.0133953316233384
5.016708354177088,1.0160438238851468
5.030415207603801,1.018471020840447
5.044122061030515,1.0189341950790352
5.057828914457228,1.018632857623376
5.071535767883941,1.0176252694062533
5.0852426213106545,1.0140409863379192
5.098949474737368,1.0098237242785522
5.112656328164081,1.0056045997834164
5.126363181590795,1.000832227575397
5.140070035017509,0.9965786316863942
5.153776888444222,0.9935543344651462
5.167483741870935,0.9878908506735566
5.1811905952976485,0.9877363249421887
5.194897448724362,0.9864053087240325
5.208604302151075,0.9871290002565559
5.222311155577788,0.9865975646236986
5.236018009004502,0.9898159884474123
5.249724862431215,0.9906711558804243
5.263431715857928,0.9943736353545817
5.2771385692846415,0.9995687015547828
5.290845422711355,1.0034137429277206
5.304552276138068,1.0072203756450124
5.318259129564782,1.0096236462254566
5.331965982991496,1.0116257143616574
5.345672836418209,1.0120486353558624
5.359379689844922,1.0122968512749206
5.3730865432716355,1.0109579243885365
5.386793396698349,1.008765874780964
5.400500250125062,1.0068396640355493
5.414207103551775,1.0031354747704884
5.427913956978489,0.9986395954220948
5.441620810405202,0.9951344991379607
5.455327663831915,0.9910813235395827
5.4690345172586285,0.9879302785081311
5.482741370685342,0.9851101426126353
5.496448224112055,0.982235865755243
5.510155077538768,0.9835293735493037
5.523861930965483,0.9843823220262468
5.537568784392196,0.9872999657671018
5.551275637818909,0.9888730098126588
5.5649824912456225,0.9946329578738885
5.578689344672336,0.9986350344961716
5.592396198099049,1.004563557828641
5.606103051525762,1.0092270672690393
5.619809904952476,1.0140269959264432
5.633516758379189,1.0189004015909953
5.647223611805902,1.0225254823515058
5.660930465232616,1.0243009708602784
5.674637318659329,1.0230172230765326
5.688344172086042,1.0226697393944366
5.7020510255127554,1.019617706244783
5.71575787893947,1.0156273839660581
5.729464732366183,1.009312732279367
5.743171585792896,1.0031068067568205
5.7568784392196095,0.9958152523810704
5.770585292646323,0.9894607325489265
5.784292146073036,0.9841983434718636
5.797998999499749,0.9787356590433641
5.811705852926463,0.9742687988414244
5.825412706353176,0.9715047705774172
5.839119559779889,0.9697346135691961
5.852826413206603,0.9702977523938536
5.866533266633316,0.9717412232129784
5.880240120060029,0.9777810614641192
5.8939469734867425,0.9837790631341075
5.907653826913456,0.9900258019654163
5.92136068034017,0.997666495477583
5.935067533766883,1.005922052104689
5.9487743871935965,1.0152189695286107
5.96248124062031,1.022595155205427
5.976188094047023,1.0292540710105158
5.989894947473736,1.0326289902459023
6.00360180090045,1.0349173773336529
6.017308654327163,1.0357111737043558
6.031015507753876,1.034589527639124
6.04472236118059,1.032129894187994
6.058429214607303,1.0243704236145876
6.072136068034016,1.0188924744530792
6.0858429214607295,1.0104360537542574
6.099549774887443,1.0004620867905964
6.113256628314156,0.9906172809917333
6.12696348174087,0.9832973479131426
6.1406703351675835,0.9747279578321649
6.154377188594297,0.9691238934410941
6.16808404202101,0.9637171756849472
6.181790895447723,0.9609672687101547
6.195497748874437,0.9599261786503213
6.20920460230115,0.961960782518543
6.222911455727863,0.9668583609828768
6.236618309154577,0.9730763037626481
6.25032516258129,0.9813930725802369
6.264032016008003,0.9887213193840422
6.2777388694347165,0.9984968069616298
6.29144572286143,1.0078456618185254
6.305152576288143,1.0189007764450981
6.318859429714857,1.0265326486580777
6.3325662831415706,1.0325161682289772
6.346273136568284,1.037864057520196
6.359979989994997,1.040735023027079
6.37368684342171,1.0397563879593155
6.387393696848424,1.039006937331775
6.401100550275137,1.0338355495450446
6.41480740370185,1.027280948526164
6.428514257128564,1.0189634704751065
6.442221110555277,1.0112872791130576
6.45592796398199,1.0000482874930912
6.4696348174087035,0.9910539335634283
6.483341670835417,0.9815864659594159
6.49704852426213,0.9732814319608737
6.510755377688843,0.9676260091188023
6.524462231115558,0.9616481595066396
6.538169084542271,0.9593795242584744
6.551875937968984,0.9601092786385711
6.5655827913956974,0.963216981235825
6.579289644822411,0.9676872407861405
6.592996498249124,0.9737220666656474
6.606703351675837,0.9827014096407283
6.620410205102551,0.9905133950134487
6.634117058529264,0.9999432246809314
6.647823911955977,1.0105570048751944
6.6615307653826905,1.0170665615249201
6.675237618809404,1.0247947008874876
6.688944472236117,1.0304581251418437
6.70265132566283,1.0342179523524773
6.716358179089544,1.0358314359523857
6.730065032516258,1.0353311990520129
6.743771885942971,1.0320564982276363
6.7574787393696845,1.0294144030673322
6.771185592796398,1.0221091454053364
6.784892446223111,1.0142656965588908
6.798599299649824,1.0077641175797485
6.812306153076538,0.9988498584000884
6.826013006503251,0.9905073982449955
6.839719859929964,0.9840876026765416
6.8534267133566775,0.9780215950626007
6.867133566783391,0.9720855441208825
6.880840420210104,0.9701174126225613
6.894547273636817,0.9685056182424682
6.908254127063531,0.9714648243470984
6.921960980490245,0.9728184018629851
6.935667833916958,0.9773476723957154
6.9493746873436715,0.9823747242028812
6.963081540770385,0.9893583718251849
6.976788394197098,0.9959782015947428
6.990495247623811,1.0020523864172728
7.004202101050525,1.009515758988091
7.017908954477238,1.015194592495718
7.031615807903951,1.01796271231249
7.0453226613306645,1.0219379063297245
7.059029514757378,1.022236992049865
7.072736368184091,1.0238253035840221
7.086443221610804,1.0222056196055638
7.100150075037518,1.0172983527750177
7.113856928464231,1.0154599557512525
7.127563781890945,1.008998185758768
7.1412706353176585,1.00361740175059
7.154977488744372,0.9988478750470933
7.168684342171085,0.993980504609666
7.182391195597798,0.9902131872605825
7.196098049024512,0.9862526815663519
7.209804902451225,0.9838227451395649
7.223511755877938,0.9814990539963704
7.2372186093046516,0.9830999470444559
7.250925462731365,0.9851504188495273
7.264632316158078,0.9876253657535653
7.278339169584791,0.9917068722312068
7.292046023011505,0.9945140938573189
7.305752876438218,0.9979389807751239
7.319459729864932,1.00327705407925
7.3331665832916455,1.0068338893087927
