time,flux
0.0,1.027006163648953
0.013706853426713355,1.026499082585529
0.02741370685342671,1.0257799362928548
0.041120560280140064,1.0224714905353112
0.05482741370685342,1.0191511722858275
0.06853426713356678,1.0151659673900348
0.08224112056028013,1.0113277095991562
0.09594797398699349,1.0064654057422482
0.10965482741370684,1.0017131562796464
0.1233616808404202,0.9974400555165819
0.13706853426713356,0.9919639150920435
0.1507753876938469,0.9864250911645763
0.16448224112056026,0.9816646871890123
0.1781890945472736,0.9805228482946987
0.19189594797398699,0.9770097394595912
0.20560280140070034,0.9739493524459278
0.21930965482741369,0.9726470292743347
0.23301650825412704,0.9713937581721044
0.2467233616808404,0.9725898242794909
0.26043021510755376,0.9736132066114163
0.2741370685342671,0.9764304065141738
0.28784392196098046,0.9785825175589771
0.3015507753876938,0.9829525050447501
0.31525762881440716,0.9885399003736445
0.3289644822411205,0.9927448129040686
0.34267133566783387,0.9966879732689227
0.3563781890945472,1.0023349265344046
0.3700850425212606,1.0076047430399624
0.38379189594797397,1.0111702314426827
0.3974987493746873,1.0151706445805233
0.41120560280140067,1.019815026084738
0.424912456228114,1.0238633473471304
0.43861930965482737,1.0262504403544133
0.4523261630815407,1.026857779975043
0.46603301650825407,1.028827123454347
0.4797398699349674,1.0259800016247913
0.4934467233616808,1.02615376157471
0.5071535767883941,1.0246187710495882
0.5208604302151075,1.02040033959246
0.5345672836418208,1.0171636111177649
0.5482741370685342,1.0121921673420582
0.5619809904952475,1.0080074204149712
0.5756878439219609,1.0037537849159932
0.5893946973486743,0.9975114558456255
0.6031015507753876,0.9941291205590931
0.616808404202101,0.9888679552654067
0.6305152576288143,0.9845573269955675
0.6442221110555277,0.97985685309247
0.657928964482241,0.9769015575584583
0.6716358179089544,0.9752784641692096
0.6853426713356677,0.972481007950931
0.6990495247623811,0.9724263385471906
0.7127563781890944,0.9718521236697129
0.7264632316158078,0.9739654203954335
0.7401700850425212,0.9759361287875088
0.7538769384692345,0.9774493395971907
0.7675837918959479,0.9829145501516185
0.7812906453226612,0.9865000800566086
0.7949974987493746,0.9902217214918604
0.8087043521760879,0.9962321593830413
0.8224112056028013,1.000988303049745
0.8361180590295146,1.005654260093648
0.849824912456228,1.009994205020601
0.8635317658829413,1.0153549722601922
0.8772386193096547,1.019032407602052
0.8909454727363681,1.0233121590520253
0.9046523261630814,1.0244878421810406
0.9183591795897948,1.0275242545011003
0.9320660330165081,1.025451844906047
0.9457728864432215,1.0260224088268939
0.9594797398699348,1.0263902064360109
0.9731865932966483,1.0234383231781319
0.9868934467233615,1.022157835274984
1.000600300150075,1.0175153229147564
1.0143071535767882,1.015505340152985
1.0280140070035018,1.0103950190576285
1.041720860430215,1.0039063831820763
1.0554277138569284,0.9992185517729795
1.0691345672836416,0.9948399658368549
1.0828414207103552,0.9900783891207517
1.0965482741370685,0.9845528558242632
1.1102551275637818,0.9795232459049692
1.123961980990495,0.9768893746674367
1.1376688344172086,0.9746338839393933
1.1513756878439219,0.9752305609368567
1.1650825412706352,0.9725398508475096
1.1787893946973487,0.971775318745631
1.192496248124062,0.9733970445482804
1.2062031015507753,0.9752092351146223
1.2199099549774886,0.9776577854791205
1.233616808404202,0.9816026136477312
1.2473236618309154,0.9848442731106332
1.2610305152576287,0.9902577120990174
1.274737368684342,0.9938321586405061
1.2884442221110555,0.9987172146519245
1.3021510755377688,1.0049715923599132
1.315857928964482,1.008535348806613
1.3295647823911956,1.0150045087335684
1.3432716358179089,1.0161041099705466
1.3569784892446222,1.0211050827917065
1.3706853426713355,1.024575270836241
1.384392196098049,1.0252714747898817
1.3980990495247623,1.0271437724192658
1.4118059029514756,1.0272469237064374
1.4255127563781889,1.027229555649532
1.4392196098049024,1.02352806880741
1.4529264632316157,1.0223766451221108
1.466633316658329,1.0200038337737312
1.4803401700850425,1.0131912278607882
1.4940470235117558,1.0121676589844577
1.507753876938469,1.0057637265453239
1.5214607303651824,1.0012213531865297
1.5351675837918959,0.9944185912755508
1.5488744372186092,0.9904914066100756
1.5625812906453225,0.9854697087221925
1.5762881440720358,0.9820617420375783
1.5899949974987493,0.9778132313694066
1.6037018509254626,0.9756362553523447
1.6174087043521759,0.9728259196036886
1.6311155577788894,0.9724067978423193
1.6448224112056027,0.9725953637444169
1.658529264632316,0.9733588188464767
1.6722361180590293,0.9729432929581887
1.6859429714857428,0.9771946625084165
1.699649824912456,0.9811402055362008
1.7133566783391694,0.9846012055948925
1.7270635317658827,0.9877810736829298
1.7407703851925962,0.993463171729745
1.7544772386193095,0.9974896731641951
1.7681840920460228,1.002472646514135
1.7818909454727363,1.0082670700012273
1.7955977988994496,1.0130476433298325
1.8093046523261629,1.0162724383178623
1.8230115057528762,1.0213720924841991
1.8367183591795897,1.0233773675037328
1.850425212606303,1.02438329717024
1.8641320660330163,1.0268524220241213
1.8778389194597296,1.0271227198296367
1.891545772886443,1.0248233054088731
1.9052526263131564,1.0255615456139342
1.9189594797398697,1.0227873327296093
1.9326663331665832,1.018532020570214
1.9463731865932965,1.0159219600815663
1.9600800400200098,1.013112092809028
1.973786893446723,1.0067980101339566
1.9874937468734366,1.0035427896334044
2.00120060030015,0.9982263606568917
2.014907453726863,0.9911159342124434
2.0286143071535765,0.9883120684131627
2.04232116058029,0.9831276808963033
2.0560280140070035,0.9786054501617663
2.069734867433717,0.9761357951729966
2.08344172086043,0.97440692238479
2.0971485742871434,0.9720426159032115
2.1108554277138567,0.9734604644853679
2.12456228114057,0.9723445480455669
2.1382691345672833,0.9738859335529889
2.1519759879939966,0.976976046448423
2.1656828414207103,0.9805512473075116
2.1793896948474236,0.9823428950930011
2.193096548274137,0.9871792094215731
2.20680340170085,0.9908091770582039
2.2205102551275635,0.9964989188320338
2.234217108554277,1.0009615820434565
2.24792396198099,1.0079322485305335
2.261630815407704,1.0117602362032958
2.275337668834417,1.0154280982015194
2.2890445222611304,1.020702065219768
2.3027513756878437,1.021583247953256
2.316458229114557,1.0252304550484381
2.3301650825412703,1.0270958880292205
2.3438719359679836,1.027836067752925
2.3575787893946973,1.0269079990866885
2.3712856428214106,1.0251284503614047
2.384992496248124,1.0250453541710027
2.3986993496748372,1.0219661606864203
2.4124062031015505,1.0175654816774202
2.426113056528264,1.0125996089883122
2.439819909954977,1.0074383777665419
2.4535267633816904,1.0032307956441295
2.467233616808404,0.9988963725608822
2.4809404702351174,0.9948803580503721
2.4946473236618307,0.9900439726087974
2.508354177088544,0.9847047467004696
2.5220610305152573,0.9798497604011673
2.5357678839419706,0.9785294279512207
2.549474737368684,0.9757899655927981
2.5631815907953976,0.974585337604849
2.576888444222111,0.9716435853900044
2.5905952976488242,0.9733713980374822
2.6043021510755375,0.9733438783436728
2.618009004502251,0.9758278800049281
2.631715857928964,0.9791002242376089
2.6454227113556774,0.9816820633409872
2.659129564782391,0.9864416323101243
2.6728364182091044,0.990354138132924
2.6865432716358177,0.9944235973635257
2.700250125062531,1.0009180178093073
2.7139569784892443,1.0053511146648477
2.7276638319159576,1.0117733605592598
2.741370685342671,1.015499256601915
2.755077538769384,1.0190071767954836
2.768784392196098,1.022135889128301
2.7824912456228112,1.0245626003391963
2.7961980990495245,1.0259667109207113
2.809904952476238,1.0280378559157564
2.823611805902951,1.0262842320411403
2.8373186593296644,1.027736370790634
2.8510255127563777,1.0255520310918627
2.8647323661830915,1.0205788373895452
2.8784392196098048,1.0186727494047836
2.892146073036518,1.014051766194034
2.9058529264632313,1.0117109877809942
2.9195597798899446,1.0051894598688997
2.933266633316658,1.0007321015045798
2.9469734867433712,0.9944420166743947
2.960680340170085,0.9893316941496447
2.9743871935967983,0.985551717451573
2.9880940470235116,0.9841543467861932
3.001800900450225,0.9778446413371419
3.015507753876938,0.9765299822417883
3.0292146073036514,0.9737725602568434
3.0429214607303647,0.9715937598643022
3.056628314157078,0.9717567408036527
3.0703351675837918,0.9726702721707309
3.084042021010505,0.9751293223926553
3.0977488744372184,0.9770893942517878
3.1114557278639317,0.980271753209979
3.125162581290645,0.9853833370894646
3.1388694347173582,0.9889661252879662
3.1525762881440715,0.9955909264889227
3.1662831415707853,0.997596127131594
3.1799899949974986,1.004086395474259
3.193696848424212,1.0111152074228758
3.207403701850925,1.0119756894851573
3.2211105552776385,1.0174070174190655
3.2348174087043517,1.0217590442854076
3.248524262131065,1.022540369763623
3.262231115557779,1.026529971933766
3.275937968984492,1.0285916430784812
3.2896448224112054,1.0284228758981107
3.3033516758379187,1.0274806425221463
3.317058529264632,1.0249875673040163
3.3307653826913453,1.0226326707605462
3.3444722361180586,1.0196450870397957
3.358179089544772,1.016676903268513
3.3718859429714856,1.0112581772158251
3.385592796398199,1.005890113392767
3.399299649824912,1.0009256253573362
3.4130065032516255,0.9965325571692337
3.4267133566783388,0.9929415799293503
3.440420210105052,0.9856897534908117
3.4541270635317654,0.9828275304847006
3.467833916958479,0.9808919385717979
3.4815407703851924,0.9762464471650776
3.4952476238119057,0.973884759423854
3.508954477238619,0.9708631635124427
3.5226613306653323,0.9727646193706116
3.5363681840920456,0.9723246461690479
3.550075037518759,0.9747185890045309
3.5637818909454726,0.9776533856036238
3.577488744372186,0.9820530440564444
3.591195597798899,0.9828275806254146
3.6049024512256125,0.9881862110411511
3.6186093046523258,0.9923825546640807
3.632316158079039,0.9975838231749917
3.6460230115057524,1.0022793509316037
3.659729864932466,1.0083787591838316
3.6734367183591794,1.011526241578439
3.6871435717858927,1.0164305171015864
3.700850425212606,1.020200120242119
3.7145572786393193,1.0232252506319544
3.7282641320660326,1.0271319173389792
3.741970985492746,1.0270873897360189
3.755677838919459,1.0277254067575567
3.769384692346173,1.0268546777900684
3.783091545772886,1.0261398619870874
3.7967983991995995,1.02499003084772
3.810505252626313,1.0206919029755352
3.824212106053026,1.0179755178687144
3.8379189594797394,1.0135246564418916
3.8516258129064527,1.0075782315122723
3.8653326663331664,1.0031917901596457
3.8790395197598797,0.9973246692031401
3.892746373186593,0.9942054547328086
3.9064532266133063,0.9874525510466263
3.9201600800400196,0.9848936149989626
3.933866933466733,0.9792950610586748
3.947573786893446,0.9777780434476058
3.96128064032016,0.9740554335066333
3.974987493746873,0.9748029934031783
3.9886943471735865,0.9721986466403962
4.0024012006003,0.9725375735384278
4.016108054027013,0.9742976716350629
4.029814907453726,0.9773848012517505
4.04352176088044,0.9787845843513444
4.057228614307153,0.982786790459366
4.070935467733866,0.9872648457922337
4.08464232116058,0.9915607510561889
4.098349174587293,0.9967019874684272
4.112056028014007,1.0014922268647828
4.12576288144072,1.004785947603627
4.139469734867434,1.0111122187248922
4.153176588294147,1.014485350093127
4.16688344172086,1.0190740736834905
4.1805902951475735,1.0234997221579873
4.194297148574287,1.024167879572171
4.208004002001,1.026120854735788
4.221710855427713,1.0260973603469703
4.235417708854427,1.0278031420483735
4.24912456228114,1.0248735007468577
4.262831415707853,1.0227918594561622
4.276538269134567,1.0213414208805298
4.29024512256128,1.0181683229540377
4.303951975987993,1.013978582983374
4.317658829414707,1.0092986857166104
4.331365682841421,1.0036402122810635
4.345072536268134,1.0005090833570436
4.358779389694847,0.9951329232945746
4.3724862431215605,0.9902208036912403
4.386193096548274,0.9850319450230103
4.399899949974987,0.9822513942755312
4.4136068034017,0.9793183433974064
4.427313656828414,0.9740769219520095
4.441020510255127,0.9727118236882732
4.45472736368184,0.9719688530741483
4.468434217108554,0.9714525794015197
4.482141070535267,0.9741754840547677
4.49584792396198,0.9759748564764824
4.5095547773886935,0.9781532035148153
4.523261630815408,0.982597698132204
4.536968484242121,0.9852783831550117
4.550675337668834,0.9912732619554039
4.5643821910955475,0.9968570274993793
4.578089044522261,0.9990962354417909
4.591795897948974,1.004758423939112
4.605502751375687,1.0108402837233088
4.619209604802401,1.0134143378476288
4.632916458229114,1.0194932410628628
4.646623311655827,1.0220315841634688
4.660330165082541,1.0259813724295204
4.674037018509254,1.0264944657435964
4.687743871935967,1.0278884604769893
4.7014507253626805,1.0297053101330185
4.715157578789395,1.0256680388798367
4.728864432216108,1.0255008535942103
4.742571285642821,1.0218522868030622
4.756278139069535,1.0189173881706028
4.769984992496248,1.015937448479808
4.783691845922961,1.0110971041095485
4.7973986993496744,1.0049731766243395
4.811105552776388,1.001711872111434
4.824812406203101,0.9954850260067964
4.838519259629814,0.9904892484829957
4.852226113056528,0.9867175957366355
4.865932966483241,0.982565551736561
4.879639819909954,0.979006585527006
4.8933466733366675,0.9758420153429905
4.907053526763381,0.9736517217609855
4.920760380190095,0.9719145566354837
4.934467233616808,0.9729705132385158
4.948174087043522,0.972122288212976
4.961880940470235,0.9734969990325466
4.975587793896948,0.977749710710177
4.9892946473236615,0.9809687743404664
5.003001500750375,0.985038851304992
5.016708354177088,0.987826630164089
5.030415207603801,0.993892739277228
5.044122061030515,0.9983257121325607
5.057828914457228,1.003247184060746
5.071535767883941,1.0086678157375544
5.0852426213106545,1.013628204297278
5.098949474737368,1.0175483519302566
5.112656328164081,1.021505564086858
5.126363181590795,1.02422389850812
5.140070035017509,1.0253857848272396
5.153776888444222,1.026415590242329
5.167483741870935,1.0276840059983596
5.1811905952976485,1.0278325519411287
5.194897448724362,1.0248153726490643
5.208604302151075,1.0231297334051814
5.222311155577788,1.0200508261312728
5.236018009004502,1.0151460315363765
5.249724862431215,1.0115135727732572
5.263431715857928,1.0073617618579849
5.2771385692846415,1.0014532166902836
5.290845422711355,0.9969739116811194
5.304552276138068,0.9912951979458315
5.318259129564782,0.9868832488544721
5.331965982991496,0.9828933719030968
5.345672836418209,0.9775232849296485
5.359379689844922,0.9775825988286415
5.3730865432716355,0.9746829039563575
5.386793396698349,0.9734070071493169
5.400500250125062,0.9723817416442146
5.414207103551775,0.974754810551496
5.427913956978489,0.9745156461230207
5.441620810405202,0.977195119056271
5.455327663831915,0.9797636796081504
5.4690345172586285,0.9833517480148214
5.482741370685342,0.9858594506925236
5.496448224112055,0.9931911329843319
5.510155077538768,0.9969060978903423
5.523861930965483,1.0023512582061254
5.537568784392196,1.0071682284797299
5.551275637818909,1.0114608715891964
5.5649824912456225,1.0170030107413894
5.578689344672336,1.0217784034498116
5.592396198099049,1.0236039144623315
5.606103051525762,1.0259882016017496
5.619809904952476,1.027093699027228
5.633516758379189,1.0271655687448678
5.647223611805902,1.02730504635513
5.660930465232616,1.0261194671143938
5.674637318659329,1.0254211841230982
5.688344172086042,1.0207047747281932
5.7020510255127554,1.0183401566381514
5.71575787893947,1.013253933475483
5.729464732366183,1.008478939982365
5.743171585792896,1.00298503650823
5.7568784392196095,0.9988297458371538
5.770585292646323,0.9941396327334837
5.784292146073036,0.9887387569994226
5.797998999499749,0.9853492163138485
5.811705852926463,0.9803432182518425
5.825412706353176,0.9776041571389734
5.839119559779889,0.9744723136603588
5.852826413206603,0.9749805510058266
5.866533266633316,0.971810678908119
5.880240120060029,0.9722990556261695
5.8939469734867425,0.9734088314300251
5.907653826913456,0.9767202262074377
5.92136068034017,0.9793095518867393
5.935067533766883,0.9828159821927938
5.9487743871935965,0.9851499047784833
5.96248124062031,0.9913021707343819
5.976188094047023,0.9954512614910893
5.989894947473736,1.001103420281345
6.00360180090045,1.0064763574291136
6.017308654327163,1.0105629349600191
6.031015507753876,1.0154213294254806
6.04472236118059,1.0193825579120868
6.058429214607303,1.0235294353115592
6.072136068034016,1.0242872765448492
6.0858429214607295,1.026805202649844
6.099549774887443,1.0277601912792151
6.113256628314156,1.0266343564385607
6.12696348174087,1.0257999965325897
6.1406703351675835,1.0242113283454966
6.154377188594297,1.0218518358426574
6.16808404202101,1.019505180581886
6.181790895447723,1.0131335182153676
6.195497748874437,1.00999678118552
6.20920460230115,1.0060017336439229
6.222911455727863,1.0001507003827335
6.236618309154577,0.9951256172702535
6.25032516258129,0.9913130877221126
6.264032016008003,0.9845214893959748
6.2777388694347165,0.9818308693621237
6.29144572286143,0.9785460077069763
6.305152576288143,0.9762109948880469
6.318859429714857,0.9746023509291518
6.3325662831415706,0.9720749258029941
6.346273136568284,0.9722065896838025
6.359979989994997,0.9734181428851321
6.37368684342171,0.9753061010693479
6.387393696848424,0.97793781341051
6.401100550275137,0.9812070135647212
6.41480740370185,0.984062510833413
6.428514257128564,0.9896759982631885
6.442221110555277,0.9934703741442643
6.45592796398199,0.9994084008730705
6.4696348174087035,1.0044738743187709
6.483341670835417,1.0088150239236624
6.49704852426213,1.0130112896277153
6.510755377688843,1.017548560190687
6.524462231115558,1.020534886381421
6.538169084542271,1.0250855540954111
6.551875937968984,1.0260334385031586
6.5655827913956974,1.0259849980508693
6.579289644822411,1.027150751586507
6.592996498249124,1.02604496142454
6.606703351675837,1.0250248631914642
6.620410205102551,1.022274803989878
6.634117058529264,1.0195533222622106
6.647823911955977,1.0157779028250566
6.6615307653826905,1.0101151653553173
6.675237618809404,1.0066508243674377
6.688944472236117,1.0023413869380078
6.70265132566283,0.9966237571448444
6.716358179089544,0.9915905973599535
6.730065032516258,0.9867606708515739
6.743771885942971,0.9831589855145021
6.7574787393696845,0.9794894376893623
6.771185592796398,0.975936501814753
6.784892446223111,0.9735942997286965
6.798599299649824,0.9725155090210309
6.812306153076538,0.9730548064496194
6.826013006503251,0.9727997379307798
6.839719859929964,0.9750186492575981
6.8534267133566775,0.976887248347292
6.867133566783391,0.9792898307264114
6.880840420210104,0.9850209981845927
6.894547273636817,0.9892598547683435
6.908254127063531,0.9932603178471726
6.921960980490245,0.9966569314599589
6.935667833916958,1.0021407686388606
6.9493746873436715,1.0072985302422772
6.963081540770385,1.0123409526232807
6.976788394197098,1.0171532500857172
6.990495247623811,1.0196984559082223
7.004202101050525,1.0237322691720625
7.017908954477238,1.0270916154973122
7.031615807903951,1.0276941772431263
7.0453226613306645,1.0284292479832158
7.059029514757378,1.0259304854054299
7.072736368184091,1.0264719661888022
7.086443221610804,1.022741178068359
7.100150075037518,1.020067739576796
7.113856928464231,1.017246544259604
7.127563781890945,1.0123776364753088
7.1412706353176585,1.0080138055105878
7.154977488744372,1.002996829563926
7.168684342171085,0.9977944856354193
7.182391195597798,0.9930144602371286
7.196098049024512,0.9881755947502969
7.209804902451225,0.985218714732885
7.223511755877938,0.9800054106648077
7.2372186093046516,0.9773496658287559
7.250925462731365,0.9731071835323675
7.264632316158078,0.9721703640604903
7.278339169584791,0.9711057724071009
7.292046023011505,0.9741353088107645
7.305752876438218,0.9736766936135778
7.319459729864932,0.9759541373380096
7.3331665832916455,0.9780041190939388
7.346873436718359,0.9818742601745873
