time,flux
0.0,1.0143313616094696
0.013706853426713355,1.0122205128767854
0.02741370685342671,1.0062507167329586
0.041120560280140064,1.0008274341156096
0.05482741370685342,0.993918175779757
0.06853426713356678,0.9897443968590767
0.08224112056028013,0.9851778117309563
0.09594797398699349,0.9833647193549511
0.10965482741370684,0.9828745275340077
0.1233616808404202,0.9811247005508472
0.13706853426713356,0.9813209810177752
0.1507753876938469,0.9822683161598776
0.16448224112056026,0.9843693143784242
0.1781890945472736,0.9881839637433742
0.19189594797398699,0.9921213127250357
0.20560280140070034,0.9957766597478537
0.21930965482741369,0.9999992137897833
0.23301650825412704,1.0062853601427555
0.2467233616808404,1.0092037438383783
0.26043021510755376,1.0128342714984
0.2741370685342671,1.0150889872258502
0.28784392196098046,1.018399403980998
0.3015507753876938,1.01964432531983
0.31525762881440716,1.019491504727457
0.3289644822411205,1.0178892613666166
0.34267133566783387,1.012547104145194
0.3563781890945472,1.0093792333414513
0.3700850425212606,1.006468178940654
0.38379189594797397,1.0007071119282303
0.3974987493746873,0.9972524730004257
0.41120560280140067,0.9936636800973341
0.424912456228114,0.9880903984582337
0.43861930965482737,0.9849575330718925
0.4523261630815407,0.980720997900794
0.46603301650825407,0.9754591722321209
0.4797398699349674,0.9732421030680444
0.4934467233616808,0.9762323225096649
0.5071535767883941,0.9748402361749282
0.5208604302151075,0.9762912078339467
0.5345672836418208,0.9781806817949575
0.5482741370685342,0.9823955427448213
0.5619809904952475,0.9872642613996149
0.5756878439219609,0.9908337191499692
0.5893946973486743,0.9971172650300139
0.6031015507753876,1.0009092848373988
0.616808404202101,1.0040003841591711
0.6305152576288143,1.0070187489121092
0.6442221110555277,1.0099389442554692
0.657928964482241,1.0089082390244792
0.6716358179089544,1.0123483776609206
0.6853426713356677,1.0097510493336188
0.6990495247623811,1.0091664018671038
0.7127563781890944,1.008472941982475
0.7264632316158078,1.0012947306911146
0.7401700850425212,0.9970088170963216
0.7538769384692345,0.993412403007112
0.7675837918959479,0.987328538259049
0.7812906453226612,0.9834720027506346
0.7949974987493746,0.9785588560065815
0.8087043521760879,0.9777224580119469
0.8224112056028013,0.9717103371929479
0.8361180590295146,0.9700227050670113
0.849824912456228,0.9691438806245148
0.8635317658829413,0.9695297899828371
0.8772386193096547,0.9679545359830762
0.8909454727363681,0.9705598486306813
0.9046523261630814,0.9742453411200541
0.9183591795897948,0.9800841033893632
0.9320660330165081,0.9831153796637614
0.9457728864432215,0.9860354686313489
0.9594797398699348,0.9932859632966383
0.9731865932966483,0.9965059028058364
0.9868934467233615,1.000028581993735
1.000600300150075,1.004028298925203
1.0143071535767882,1.0063775667181059
1.0280140070035018,1.0052539550821467
1.041720860430215,1.0058650080947489
1.0554277138569284,1.0035559569977166
1.0691345672836416,1.0038273532955289
1.0828414207103552,0.9984786476619663
1.0965482741370685,0.99785038808036
1.1102551275637818,0.9940887540341048
1.123961980990495,0.9888268508671834
1.1376688344172086,0.9828697354915433
1.1513756878439219,0.9789945305627182
1.1650825412706352,0.9713009030555046
1.1787893946973487,0.9697777921861875
1.192496248124062,0.9663799670335586
1.2062031015507753,0.9651916712331002
1.2199099549774886,0.9636645512777732
1.233616808404202,0.9625014479238574
1.2473236618309154,0.9664296261783083
1.2610305152576287,0.9687811575035339
1.274737368684342,0.9727034413327215
1.2884442221110555,0.9740472803453932
1.3021510755377688,0.97943148207563
1.315857928964482,0.9859460248643372
1.3295647823911956,0.9897031091187964
1.3432716358179089,0.9931955222806595
1.3569784892446222,0.9958203425985216
1.3706853426713355,1.0011323226349604
1.384392196098049,1.004342852502542
1.3980990495247623,1.003082849533269
1.4118059029514756,1.004331783805833
1.4255127563781889,1.002303401244405
1.4392196098049024,0.9994102485818936
1.4529264632316157,0.9975278283636712
1.466633316658329,0.9931798737722339
1.4803401700850425,0.9890596152116861
1.4940470235117558,0.9817925786138626
1.507753876938469,0.9808261162910973
1.5214607303651824,0.9733273195314662
1.5351675837918959,0.9710813207752544
1.5488744372186092,0.9672796613468494
1.5625812906453225,0.9653310663010963
1.5762881440720358,0.9640525070083086
1.5899949974987493,0.96383269414734
1.6037018509254626,0.9615902758872875
1.6174087043521759,0.9671015440887657
1.6311155577788894,0.9719539762446845
1.6448224112056027,0.9706380403098939
1.658529264632316,0.9768052189166936
1.6722361180590293,0.9818757022176872
1.6859429714857428,0.9867395412433584
1.699649824912456,0.9909619238062164
1.7133566783391694,0.9981813842731873
1.7270635317658827,1.0008850201190245
1.7407703851925962,1.0047969473495004
1.7544772386193095,1.0000477656567637
1.7681840920460228,1.0040592591375836
1.7818909454727363,1.005406549187676
1.7955977988994496,1.0023251025840294
1.8093046523261629,1.0016407546699322
1.8230115057528762,0.9961968571611253
1.8367183591795897,0.9939828480656991
1.850425212606303,0.9876473692517348
1.8641320660330163,0.9835306372824273
1.8778389194597296,0.9773232650036636
1.891545772886443,0.9733668162460373
1.9052526263131564,0.9701670756082487
1.9189594797398697,0.9686135470962652
1.9326663331665832,0.9654889398648896
1.9463731865932965,0.9634908949902569
1.9600800400200098,0.9640955392196005
1.973786893446723,0.9664746221956538
1.9874937468734366,0.9681998498000248
2.00120060030015,0.9704376048479656
2.014907453726863,0.9791841954770114
2.0286143071535765,0.9821014648252336
2.04232116058029,0.9848525174960898
2.0560280140070035,0.9892223073187664
2.069734867433717,0.9942283563278381
2.08344172086043,0.9974605473931311
2.0971485742871434,1.0027151570376867
2.1108554277138567,1.0050836685882294
2.12456228114057,1.0065848945655493
2.1382691345672833,1.0071270580689882
2.1519759879939966,1.0069059062393197
2.1656828414207103,1.0031743010678187
2.1793896948474236,1.0041051540021375
2.193096548274137,0.99770657901598
2.20680340170085,0.9932591599544317
2.2205102551275635,0.9884355702912828
2.234217108554277,0.9850455736044382
2.24792396198099,0.9801415592516791
2.261630815407704,0.9756065608953784
2.275337668834417,0.9742482485794651
2.2890445222611304,0.9707418194197782
2.3027513756878437,0.9680205965723233
2.316458229114557,0.9707065089117508
2.3301650825412703,0.9699819668734557
2.3438719359679836,0.9717275281443769
2.3575787893946973,0.9742255995252415
2.3712856428214106,0.9787682720842175
2.384992496248124,0.9827922449217917
2.3986993496748372,0.9853702929015697
2.4124062031015505,0.9883247376702637
2.426113056528264,0.9973428846925249
2.439819909954977,1.0021513145008405
2.4535267633816904,1.0015484682941496
2.467233616808404,1.009875822546509
2.4809404702351174,1.01218951933042
2.4946473236618307,1.0110077160269846
2.508354177088544,1.0093081009404672
2.5220610305152573,1.010188846861627
2.5357678839419706,1.009341687039001
2.549474737368684,1.0064925796635182
2.5631815907953976,1.0008097469369437
2.576888444222111,0.9955832479424971
2.5905952976488242,0.9932938896164734
2.6043021510755375,0.9898581307200421
2.618009004502251,0.9832668791792311
2.631715857928964,0.9800506863669864
2.6454227113556774,0.9817952061200064
2.659129564782391,0.9750953425492171
2.6728364182091044,0.9767390073225052
2.6865432716358177,0.9744495443834663
2.700250125062531,0.976144694862705
2.7139569784892443,0.9792233269027839
2.7276638319159576,0.9816376113465191
2.741370685342671,0.9873377819096467
2.755077538769384,0.9913597125933321
2.768784392196098,0.992148576315754
2.7824912456228112,0.9993594825657522
2.7961980990495245,1.0058797888080435
2.809904952476238,1.0070593898298486
2.823611805902951,1.013454840235472
2.8373186593296644,1.0151480891132223
2.8510255127563777,1.0202423228738606
2.8647323661830915,1.019791869357159
2.8784392196098048,1.0194487374482344
2.892146073036518,1.0174069892820485
2.9058529264632313,1.0129562833597439
2.9195597798899446,1.010551707018775
2.933266633316658,1.0042246375483976
2.9469734867433712,1.0037204377648479
2.960680340170085,0.9986102105182901
2.9743871935967983,0.9964085546141175
2.9880940470235116,0.9896138428788298
3.001800900450225,0.9861530742992561
3.015507753876938,0.9810285777825168
3.0292146073036514,0.9809886107530789
3.0429214607303647,0.9793096288024311
3.056628314157078,0.9911608960941303
3.0703351675837918,0.982344594233539
3.084042021010505,0.9864170349833024
3.0977488744372184,0.9885766905358285
3.1114557278639317,0.9965377322544663
3.125162581290645,0.9980094946664428
3.1388694347173582,1.0032174982195174
3.1525762881440715,1.0068785589090747
3.1662831415707853,1.0112163371599152
3.1799899949974986,1.015661133453211
3.193696848424212,1.0218591338303329
3.207403701850925,1.0219239005733176
3.2211105552776385,1.025627702038164
3.2348174087043517,1.0261420571936444
3.248524262131065,1.0251309980384051
3.262231115557779,1.0222898092045236
3.275937968984492,1.020738465337081
3.2896448224112054,1.0142775115831548
3.3033516758379187,1.0081427840001291
3.317058529264632,1.0086326250513575
3.3307653826913453,1.002258691062114
3.3444722361180586,0.9977517291552611
3.358179089544772,0.9940124812261166
3.3718859429714856,0.9927922683282766
3.385592796398199,0.9912005773005615
3.399299649824912,0.9880636362165375
3.4130065032516255,0.9861060610159067
3.4267133566783388,0.9888388287063136
3.440420210105052,0.9910550792828197
3.4541270635317654,0.9927736794928894
3.467833916958479,0.9970390588564403
3.4815407703851924,1.0041407823122546
3.4952476238119057,1.0061704573532162
3.508954477238619,1.0113231034835748
3.5226613306653323,1.0156253918016107
3.5363681840920456,1.0216531313333892
3.550075037518759,1.0277575443955353
3.5637818909454726,1.025842232676085
3.577488744372186,1.0311717038594683
3.591195597798899,1.031348171326764
3.6049024512256125,1.0348026699178652
3.6186093046523258,1.031914534387536
3.632316158079039,1.0278485261476447
3.6460230115057524,1.027424756843683
3.659729864932466,1.021473263017494
3.6734367183591794,1.0163616170308167
3.6871435717858927,1.0114981474091291
3.700850425212606,1.0054213507193583
3.7145572786393193,1.00485284792655
3.7282641320660326,0.9981020334961994
3.741970985492746,0.9946700706930581
3.755677838919459,0.9939415319406621
3.769384692346173,0.9914214251761092
3.783091545772886,0.9932304337788681
3.7967983991995995,0.9949764046262696
3.810505252626313,0.9956181448231861
3.824212106053026,0.9993906400234612
3.8379189594797394,1.0039737002923397
3.8516258129064527,1.0083132607955994
3.8653326663331664,1.0131507532945985
3.8790395197598797,1.0186423782417318
3.892746373186593,1.0235903385757767
3.9064532266133063,1.026628468342016
3.9201600800400196,1.0297924394843618
3.933866933466733,1.0329379748947192
3.947573786893446,1.0340583228165494
3.96128064032016,1.0351669605409335
3.974987493746873,1.033117439122645
3.9886943471735865,1.0326053034526277
4.0024012006003,1.0286024969749432
4.016108054027013,1.0277035765211202
4.029814907453726,1.0244302960896
4.04352176088044,1.0181295960504377
4.057228614307153,1.0148210192046923
4.070935467733866,1.0087878123503766
4.08464232116058,1.0034318858012141
4.098349174587293,1.0029254640660057
4.112056028014007,0.9999122467922593
4.12576288144072,0.9965848351888339
4.139469734867434,0.9949394927297192
4.153176588294147,0.9947506892189827
4.16688344172086,0.9988527471025248
4.1805902951475735,1.0008193276641248
4.194297148574287,1.0030371507581881
4.208004002001,1.0058530548511366
4.221710855427713,1.0145192164023376
4.235417708854427,1.0174793711512629
4.24912456228114,1.0218574280921329
4.262831415707853,1.026193383695646
4.276538269134567,1.0306445352901448
4.29024512256128,1.032533446836037
4.303951975987993,1.0373548937152148
4.317658829414707,1.0381297683432518
4.331365682841421,1.0333890444412184
4.345072536268134,1.0362777663083877
4.358779389694847,1.0339326927658377
4.3724862431215605,1.0290070106413738
4.386193096548274,1.0263740097810718
4.399899949974987,1.023844762679852
4.4136068034017,1.0194187135690247
4.427313656828414,1.0092555982728713
4.441020510255127,1.006243393352736
4.45472736368184,1.0021806811223128
4.468434217108554,0.9999381447978961
4.482141070535267,0.9964603803351515
4.49584792396198,0.9944963830268594
4.5095547773886935,0.9931964362139636
4.523261630815408,0.9958788507801496
4.536968484242121,0.9962546715141074
4.550675337668834,1.0011002878384918
4.5643821910955475,1.0051696620439874
4.578089044522261,1.008931569340665
4.591795897948974,1.0147686612824376
4.605502751375687,1.0184409325098542
4.619209604802401,1.023189986915222
4.632916458229114,1.025748253157146
4.646623311655827,1.0289886116148894
4.660330165082541,1.0316651421107517
4.674037018509254,1.036871334256794
4.687743871935967,1.0348810709415834
4.7014507253626805,1.0361125541785192
4.715157578789395,1.0346594443041253
4.728864432216108,1.0319899238031134
4.742571285642821,1.0290425465588924
4.756278139069535,1.0251128349308518
4.769984992496248,1.017450178340716
4.783691845922961,1.0147238490420862
4.7973986993496744,1.0091435352906253
4.811105552776388,1.0054142479512826
4.824812406203101,1.0009171725722457
4.838519259629814,1.0005713104939105
4.852226113056528,0.9917993017738935
4.865932966483241,0.9923949174570983
4.879639819909954,0.9946489446007474
4.8933466733366675,0.9949813759373348
4.907053526763381,0.9982311086037706
4.920760380190095,1.001085585876236
4.934467233616808,1.0005426150304324
4.948174087043522,1.006039146410592
4.961880940470235,1.011432539454618
4.975587793896948,1.017598919986943
4.9892946473236615,1.0222221371127256
5.003001500750375,1.0250662796799312
5.016708354177088,1.0277296736318209
5.030415207603801,1.029985803786121
5.044122061030515,1.0320649751866167
5.057828914457228,1.033773700671566
5.071535767883941,1.030660149393162
5.0852426213106545,1.029020511391044
5.098949474737368,1.0271702659704838
5.112656328164081,1.0233684084530241
5.126363181590795,1.0174947721843017
5.140070035017509,1.0121709250710238
5.153776888444222,1.0054785115570468
5.167483741870935,1.0058807315744873
5.1811905952976485,0.9989754261855857
5.194897448724362,0.9950142269009404
5.208604302151075,0.9911366371638877
5.222311155577788,0.9906640417726258
5.236018009004502,0.9887920083396964
5.249724862431215,0.9889598000118072
5.263431715857928,0.9888479402287594
5.2771385692846415,0.9919487205739872
5.290845422711355,0.9963958061549196
5.304552276138068,0.999468979733464
5.318259129564782,1.003252142854948
5.331965982991496,1.008648588538286
5.345672836418209,1.0137459513663631
5.359379689844922,1.0165652228729951
5.3730865432716355,1.0192571263630719
5.386793396698349,1.0235137481122112
5.400500250125062,1.0252320608158896
5.414207103551775,1.0262724712605305
5.427913956978489,1.0261172000897578
5.441620810405202,1.0244491965343996
5.455327663831915,1.0210512586896154
5.4690345172586285,1.0194043844279943
5.482741370685342,1.0171755663250683
5.496448224112055,1.0121463496685958
5.510155077538768,1.005762349598708
5.523861930965483,0.9990491646441471
5.537568784392196,0.995684159106233
5.551275637818909,0.9912553033563205
5.5649824912456225,0.9864897179158316
5.578689344672336,0.9859141391007469
5.592396198099049,0.9810401623350182
5.606103051525762,0.9807990564748511
5.619809904952476,0.981302240979344
5.633516758379189,0.983681558976367
5.647223611805902,0.9869806168101618
5.660930465232616,0.9912878231337192
5.674637318659329,0.9943786057579895
5.688344172086042,0.9978204034518815
5.7020510255127554,1.0024107624776444
5.71575787893947,1.0080552422024351
5.729464732366183,1.011888789055361
5.743171585792896,1.0162151186966777
5.7568784392196095,1.020545810712275
5.770585292646323,1.020000506028535
5.784292146073036,1.01933888376811
5.797998999499749,1.0174692607507747
5.811705852926463,1.0172142481294726
5.825412706353176,1.0147334534073356
5.839119559779889,1.0145971637578115
5.852826413206603,1.004279135260755
5.866533266633316,1.0003534318775473
5.880240120060029,0.9992552095366559
5.8939469734867425,0.9909792853043807
5.907653826913456,0.9866799522531613
5.92136068034017,0.9816990172703862
5.935067533766883,0.9777658310376981
5.9487743871935965,0.9788333172943713
5.96248124062031,0.9742843652823957
5.976188094047023,0.9732070913846066
5.989894947473736,0.9767025207702639
6.00360180090045,0.9781079995995134
6.017308654327163,0.9800666602310196
6.031015507753876,0.9847306054849511
6.04472236118059,0.9877702937944783
6.058429214607303,0.9948839292726392
6.072136068034016,0.9980814627258678
6.0858429214607295,1.0010744226219237
6.099549774887443,1.0051429896114927
6.113256628314156,1.0076714024025701
6.12696348174087,1.0113749129838667
6.1406703351675835,1.0122879922480745
6.154377188594297,1.0115528658384314
6.16808404202101,1.014251815685801
6.181790895447723,1.0109678121686276
6.195497748874437,1.0079430042913649
6.20920460230115,1.0024076421386106
6.222911455727863,0.9976422789684374
6.236618309154577,0.9953193176444811
6.25032516258129,0.9888275151139394
6.264032016008003,0.9835422017196415
6.2777388694347165,0.9783949434314855
6.29144572286143,0.9760393283235771
6.305152576288143,0.970044313382434
6.318859429714857,0.9696384241797572
6.3325662831415706,0.9687511055626901
6.346273136568284,0.9689761332748906
6.359979989994997,0.9707514221848027
6.37368684342171,0.9724669776531796
6.387393696848424,0.9771517106200889
6.401100550275137,0.9790183640375092
6.41480740370185,0.9862812396414828
6.428514257128564,0.9882896795942545
6.442221110555277,0.9946905243932701
6.45592796398199,0.9980099892283969
6.4696348174087035,0.9992204299638816
6.483341670835417,1.0052135876151806
6.49704852426213,1.0062618613216041
6.510755377688843,1.0086918984572142
6.524462231115558,1.007699628833717
6.538169084542271,1.0056728894203102
6.551875937968984,1.0022547334803287
6.5655827913956974,1.0015784576869697
6.579289644822411,0.9970395102374988
6.592996498249124,0.993783633681843
6.606703351675837,0.9847720450329163
6.620410205102551,0.9835457557871983
6.634117058529264,0.9794838976138593
6.647823911955977,0.9738096682604342
6.6615307653826905,0.9687688871286781
6.675237618809404,0.9675396349370078
6.688944472236117,0.962619332618047
6.70265132566283,0.9647975726205896
6.716358179089544,0.9661368063193606
6.730065032516258,0.966024355917612
6.743771885942971,0.9698087522003476
6.7574787393696845,0.9746362314427862
6.771185592796398,0.9802459091688471
6.784892446223111,0.9820941790132289
6.798599299649824,0.9872179786671423
6.812306153076538,0.993069713578843
6.826013006503251,0.9958063185671171
6.839719859929964,0.9980509136636978
6.8534267133566775,1.0043349940076698
6.867133566783391,1.0046659274382694
6.880840420210104,1.003955108615658
6.894547273636817,1.0041328803722094
6.908254127063531,0.9994864012603423
6.921960980490245,1.0001480738650272
6.935667833916958,0.9949210033395732
6.9493746873436715,0.9917643576336526
6.963081540770385,0.9890031946813823
6.976788394197098,0.9824673819783483
6.990495247623811,0.9781061011200494
7.004202101050525,0.9733338722665917
7.017908954477238,0.9691297773088051
7.031615807903951,0.966477096377426
7.0453226613306645,0.9637497105152736
7.059029514757378,0.9627024721095522
7.072736368184091,0.9615939242267468
7.086443221610804,0.964623831579876
7.100150075037518,0.9648473619062886
7.113856928464231,0.9701648839092095
7.127563781890945,0.9732417507353205
7.1412706353176585,0.9741260426987528
7.154977488744372,0.9826585889989828
7.168684342171085,0.9876565004297513
7.182391195597798,0.9950971550887794
7.196098049024512,0.9957192399140924
7.209804902451225,0.9986706852084244
7.223511755877938,1.0023508135458772
7.2372186093046516,1.0045725891195185
7.250925462731365,1.0046327587780957
7.264632316158078,1.0033309286012921
7.278339169584791,1.0037437353707375
7.292046023011505,0.9979095232983561
7.305752876438218,0.9926863924026172
7.319459729864932,0.9914676388701088
7.3331665832916455,0.9846243411461582
7.346873436718359,0.9808646427149478
