time,flux
0.0,0.9843074798617134
0.013706853426713355,0.9902327697773031
0.02741370685342671,0.9971843936254471
0.041120560280140064,1.0053384761658104
0.05482741370685342,1.01006404841374
0.06853426713356678,1.018461873227488
0.08224112056028013,1.0248512335695799
0.09594797398699349,1.0325384133499118
0.10965482741370684,1.0360645147928218
0.1233616808404202,1.0394360264359506
0.13706853426713356,1.0436328125150158
0.1507753876938469,1.046306951556294
0.16448224112056026,1.0463029751638178
0.1781890945472736,1.0460931201333061
0.19189594797398699,1.0464091739521566
0.20560280140070034,1.043411958032328
0.21930965482741369,1.0406052129326235
0.23301650825412704,1.0368642908166688
0.2467233616808404,1.030746032999596
0.26043021510755376,1.0253789043445316
0.2741370685342671,1.0193510986192165
0.28784392196098046,1.0126928057647484
0.3015507753876938,1.0045020887475027
0.31525762881440716,0.9977374221493067
0.3289644822411205,0.992108334712716
0.34267133566783387,0.9850060775535688
0.3563781890945472,0.977981958133796
0.3700850425212606,0.9714612140334852
0.38379189594797397,0.9672286121554825
0.3974987493746873,0.9627866288533273
0.41120560280140067,0.9598588413848603
0.424912456228114,0.9559950007474048
0.43861930965482737,0.9572957605202683
0.4523261630815407,0.9537526500797833
0.46603301650825407,0.9555128469116265
0.4797398699349674,0.9567542145433404
0.4934467233616808,0.9603376618900908
0.5071535767883941,0.9646329052681898
0.5208604302151075,0.96837545766702
0.5345672836418208,0.9741720947846598
0.5482741370685342,0.9794824569683351
0.5619809904952475,0.9854282780010892
0.5756878439219609,0.9921258840846381
0.5893946973486743,0.9993041264548809
0.6031015507753876,1.0050245781716174
0.616808404202101,1.0108061396586094
0.6305152576288143,1.0179824909379145
0.6442221110555277,1.0234756872840312
0.657928964482241,1.0277345627409398
0.6716358179089544,1.0321925666706908
0.6853426713356677,1.0364148538722564
0.6990495247623811,1.03833362587176
0.7127563781890944,1.0387813171885576
0.7264632316158078,1.0412193194005632
0.7401700850425212,1.0402130343465383
0.7538769384692345,1.0373493554979158
0.7675837918959479,1.0369311919248871
0.7812906453226612,1.033587657648946
0.7949974987493746,1.0304258666872823
0.8087043521760879,1.0260795790515351
0.8224112056028013,1.0204694758833015
0.8361180590295146,1.0149305856931088
0.849824912456228,1.0089309440235188
0.8635317658829413,1.0040296362656533
0.8772386193096547,0.9977168036333066
0.8909454727363681,0.9935784246362152
0.9046523261630814,0.9877685609792328
0.9183591795897948,0.9835458186175424
0.9320660330165081,0.9778006041483637
0.9457728864432215,0.9734224482622507
0.9594797398699348,0.9706473096454987
0.9731865932966483,0.9694984634130613
0.9868934467233615,0.9668089731363502
1.000600300150075,0.9643160372656345
1.0143071535767882,0.9665733187873259
1.0280140070035018,0.9671929970805547
1.041720860430215,0.9684887901449388
1.0554277138569284,0.9694131485285806
1.0691345672836416,0.9733399454853785
1.0828414207103552,0.976867897557045
1.0965482741370685,0.9808164719558128
1.1102551275637818,0.9834933092639434
1.123961980990495,0.9893479783825302
1.1376688344172086,0.9926794142286425
1.1513756878439219,0.9978749299075139
1.1650825412706352,1.0036293184808014
1.1787893946973487,1.0063681409166114
1.192496248124062,1.0112129878326268
1.2062031015507753,1.0146083357264526
1.2199099549774886,1.018270076663118
1.233616808404202,1.0210744136176302
1.2473236618309154,1.0222819262935228
1.2610305152576287,1.024851683533538
1.274737368684342,1.0253858086505998
1.2884442221110555,1.025912147279445
1.3021510755377688,1.024972467407981
1.315857928964482,1.0244393183270093
1.3295647823911956,1.0224785818256925
1.3432716358179089,1.0217894575884647
1.3569784892446222,1.0197984425455975
1.3706853426713355,1.0166738414045353
1.384392196098049,1.0147382491546924
1.3980990495247623,1.0099898606665414
1.4118059029514756,1.0080270191572869
1.4255127563781889,1.0046024444542148
1.4392196098049024,1.0014330937455778
1.4529264632316157,0.9979161811896443
1.466633316658329,0.9951990476385051
1.4803401700850425,0.9933150385593972
1.4940470235117558,0.990503179627961
1.507753876938469,0.98896500430432
1.5214607303651824,0.9854103982344519
1.5351675837918959,0.9861843420153917
1.5488744372186092,0.9854958408862003
1.5625812906453225,0.9833267039643601
1.5762881440720358,0.9836646068207824
1.5899949974987493,0.9835417234179888
1.6037018509254626,0.984170131308728
1.6174087043521759,0.9846967554721023
1.6311155577788894,0.9870778783382497
1.6448224112056027,0.9879953869919306
1.658529264632316,0.9879912240563329
1.6722361180590293,0.9904735827450216
1.6859429714857428,0.9917251323774812
1.699649824912456,0.9927515705698693
1.7133566783391694,0.9940705098717131
1.7270635317658827,0.9972409985731172
1.7407703851925962,0.998706268018165
1.7544772386193095,0.998547520963166
1.7681840920460228,1.0008038558599681
1.7818909454727363,1.0008009707100327
1.7955977988994496,1.0031018865374646
1.8093046523261629,1.0044148312914651
1.8230115057528762,1.0056690716496262
1.8367183591795897,1.0051847282298139
1.850425212606303,1.0066332273377447
1.8641320660330163,1.0061343220828778
1.8778389194597296,1.0071798695368916
1.891545772886443,1.0085040290083729
1.9052526263131564,1.0082086758622841
1.9189594797398697,1.0083049832490878
1.9326663331665832,1.007559647428586
1.9463731865932965,1.0086300363872363
1.9600800400200098,1.007615280588015
1.973786893446723,1.0073331059287607
1.9874937468734366,1.007758020653698
2.00120060030015,1.0073439472715338
2.014907453726863,1.0077623945001135
2.0286143071535765,1.0083795226666319
2.04232116058029,1.0069703252596358
2.0560280140070035,1.007531760405524
2.069734867433717,1.0064562821497685
2.08344172086043,1.0063142914615035
2.0971485742871434,1.006013225277679
2.1108554277138567,1.0051837871605123
2.12456228114057,1.0043479852609671
2.1382691345672833,1.0026201662348393
2.1519759879939966,1.0019863681342651
2.1656828414207103,1.000393226390101
2.1793896948474236,0.9987771634316823
2.193096548274137,0.9972058026796801
2.20680340170085,0.9950441750969592
2.2205102551275635,0.9945717073870245
2.234217108554277,0.9932477508316774
2.24792396198099,0.9912804791102726
2.261630815407704,0.9899992197418241
2.275337668834417,0.9878437085035765
2.2890445222611304,0.9873356123233381
2.3027513756878437,0.9858816107627126
2.316458229114557,0.9846719362506104
2.3301650825412703,0.9848173554613008
2.3438719359679836,0.9851642269479681
2.3575787893946973,0.9844179325242962
2.3712856428214106,0.9848910376984763
2.384992496248124,0.9845116817892624
2.3986993496748372,0.9855379913042778
2.4124062031015505,0.9883533326232153
2.426113056528264,0.9895855926366853
2.439819909954977,0.9924910752793245
2.4535267633816904,0.9938848731104608
2.467233616808404,0.9965947799153281
2.4809404702351174,0.9986728059583145
2.4946473236618307,1.0022674318226192
2.508354177088544,1.0048295108984504
2.5220610305152573,1.0071789161831295
2.5357678839419706,1.0098091249356866
2.549474737368684,1.0141004887206944
2.5631815907953976,1.0170722695451453
2.576888444222111,1.0186005107073162
2.5905952976488242,1.0207056036905182
2.6043021510755375,1.022917278100744
2.618009004502251,1.0237161781458188
2.631715857928964,1.025061111700173
2.6454227113556774,1.0245972519509552
2.659129564782391,1.0242471050488464
2.6728364182091044,1.02405080200043
2.6865432716358177,1.0212382870203593
2.700250125062531,1.0203519657497149
2.7139569784892443,1.0160004649201577
2.7276638319159576,1.0144631360304597
2.741370685342671,1.010255305819451
2.755077538769384,1.0070832171600912
2.768784392196098,1.0031239468204223
2.7824912456228112,0.9986445146176558
2.7961980990495245,0.9943310563809576
2.809904952476238,0.9880696588712052
2.823611805902951,0.9854743625570603
2.8373186593296644,0.9820353877674884
2.8510255127563777,0.9814866308108606
2.8647323661830915,0.9746328323418503
2.8784392196098048,0.9720116281033967
2.892146073036518,0.9696200672405552
2.9058529264632313,0.9677227109472543
2.9195597798899446,0.9675786739003579
2.933266633316658,0.9680216464146766
2.9469734867433712,0.968129472263923
2.960680340170085,0.9700689990457251
2.9743871935967983,0.9724746284645298
2.9880940470235116,0.9752438454371998
3.001800900450225,0.979866963129385
3.015507753876938,0.9833775107796716
3.0292146073036514,0.9879266539173497
3.0429214607303647,0.9919376077081866
3.056628314157078,0.9987465812685036
3.0703351675837918,1.0046619263847143
3.084042021010505,1.0077000491906791
3.0977488744372184,1.013499202256589
3.1114557278639317,1.0187324313900321
3.125162581290645,1.024038090802925
3.1388694347173582,1.0281254383159568
3.1525762881440715,1.0308453407821476
3.1662831415707853,1.0340600994368596
3.1799899949974986,1.0356813837607866
3.193696848424212,1.037487673884454
3.207403701850925,1.0385114860921594
3.2211105552776385,1.0385537261664446
3.2348174087043517,1.037285885796961
3.248524262131065,1.033566799236327
3.262231115557779,1.029504216450147
3.275937968984492,1.0267911359656563
3.2896448224112054,1.022472760761636
3.3033516758379187,1.0164100296613494
3.317058529264632,1.011096722211787
3.3307653826913453,1.0047392612803019
3.3444722361180586,0.9994587863563782
3.358179089544772,0.9940338656407196
3.3718859429714856,0.987458791760075
3.385592796398199,0.9807374138502166
3.399299649824912,0.9755250756372283
3.4130065032516255,0.9719236155833535
3.4267133566783388,0.9671386606970336
3.440420210105052,0.9636739433484353
3.4541270635317654,0.9607942313110769
3.467833916958479,0.9584279337706386
3.4815407703851924,0.958638227888237
3.4952476238119057,0.9586093967246643
3.508954477238619,0.9598364650395347
3.5226613306653323,0.9627402341290416
3.5363681840920456,0.9645797324171093
3.550075037518759,0.9701859183486015
3.5637818909454726,0.9744615019527026
3.577488744372186,0.9776628159302935
3.591195597798899,0.9846447302854358
3.6049024512256125,0.990450817480593
3.6186093046523258,0.9965688251583931
3.632316158079039,1.003300089278571
3.6460230115057524,1.0103895477088247
3.659729864932466,1.015630003723062
3.6734367183591794,1.0215260330418656
3.6871435717858927,1.0268731582878707
3.700850425212606,1.0322684168999057
3.7145572786393193,1.0360331384327177
3.7282641320660326,1.03885002873065
3.741970985492746,1.040748131108472
3.755677838919459,1.04467635806296
3.769384692346173,1.0418905574203967
3.783091545772886,1.042941642946336
3.7967983991995995,1.0400064600714802
3.810505252626313,1.0377344663682782
3.824212106053026,1.0353659467659475
3.8379189594797394,1.0296540107956011
3.8516258129064527,1.025821872963684
3.8653326663331664,1.0186318002908574
3.8790395197598797,1.0138911654672633
3.892746373186593,1.0051038133136947
3.9064532266133063,1.0002068344352517
3.9201600800400196,0.9935449262368317
3.933866933466733,0.9874414831679253
3.947573786893446,0.9807372538266304
3.96128064032016,0.9766541254336168
3.974987493746873,0.970505421276928
3.9886943471735865,0.9652004157107476
4.0024012006003,0.9630784999544907
4.016108054027013,0.9595923479917039
4.029814907453726,0.958754472726793
4.04352176088044,0.9585074009630385
4.057228614307153,0.9583206504352718
4.070935467733866,0.9596688306026323
4.08464232116058,0.9618680234447108
4.098349174587293,0.9648249144866065
4.112056028014007,0.969206770052227
4.12576288144072,0.9733974701787133
4.139469734867434,0.9794296349731721
4.153176588294147,0.9838289855663936
4.16688344172086,0.989344305672961
4.1805902951475735,0.9965219338952114
4.194297148574287,1.0017277803560571
4.208004002001,1.0087447736532007
4.221710855427713,1.0139134688574432
4.235417708854427,1.0201390125565122
4.24912456228114,1.0249351541264515
4.262831415707853,1.0310953801546838
4.276538269134567,1.033356990100439
4.29024512256128,1.0357178261294588
4.303951975987993,1.0381817182462831
4.317658829414707,1.0388520042374778
4.331365682841421,1.0398772321665442
4.345072536268134,1.0388703563521293
4.358779389694847,1.0361442925733524
4.3724862431215605,1.035025196679728
4.386193096548274,1.0310491917530271
4.399899949974987,1.027603309121271
4.4136068034017,1.0229196363520525
4.427313656828414,1.0182708295884892
4.441020510255127,1.0125270170559404
4.45472736368184,1.0061109191269246
4.468434217108554,1.0017741536326146
4.482141070535267,0.9959988084106476
4.49584792396198,0.9904255735559877
4.5095547773886935,0.9859709775358059
4.523261630815408,0.9813902580493734
4.536968484242121,0.9765181950913374
4.550675337668834,0.9726714243191961
4.5643821910955475,0.9705269917321181
4.578089044522261,0.9680795111497789
4.591795897948974,0.9673139359337931
4.605502751375687,0.9653056881511886
4.619209604802401,0.966865420780095
4.632916458229114,0.9672903027497887
4.646623311655827,0.969440474720109
4.660330165082541,0.9713434423197066
4.674037018509254,0.9755470579361208
4.687743871935967,0.9777624286073798
4.7014507253626805,0.982731086988029
4.715157578789395,0.9869384730004794
4.728864432216108,0.9905612858960346
4.742571285642821,0.995713753168447
4.756278139069535,1.0004706271835717
4.769984992496248,1.0040723306891721
4.783691845922961,1.0081085588066052
4.7973986993496744,1.0120655509762657
4.811105552776388,1.0147360817774354
4.824812406203101,1.0195155458505296
4.838519259629814,1.0214509090766286
4.852226113056528,1.023711714605908
4.865932966483241,1.0252876769469768
4.879639819909954,1.0267593718790293
4.8933466733366675,1.0276631950034005
4.907053526763381,1.0261735674244536
4.920760380190095,1.026724113921212
4.934467233616808,1.025156682647256
4.948174087043522,1.0228192221110983
4.961880940470235,1.020595048657194
4.975587793896948,1.0169268418596165
4.9892946473236615,1.0152150975109202
5.003001500750375,1.0121711343340416
5.016708354177088,1.0079683228891103
5.030415207603801,1.0041873693067753
5.044122061030515,1.0016999747778597
5.057828914457228,0.9967811922389468
5.071535767883941,0.9947790037055235
5.0852426213106545,0.9906788391164348
5.098949474737368,0.9887915672318857
5.112656328164081,0.9859580212008507
5.126363181590795,0.9837799225878558
5.140070035017509,0.9829480125103427
5.153776888444222,0.9808626648774118
5.167483741870935,0.9806778503345057
5.1811905952976485,0.9806072297795008
5.194897448724362,0.980402353646241
5.208604302151075,0.9804737428365417
5.222311155577788,0.9824796457360504
5.236018009004502,0.9819960159855474
5.249724862431215,0.9844711345814354
5.263431715857928,0.986842163238028
5.2771385692846415,0.988011408220822
5.290845422711355,0.9898828089027571
5.304552276138068,0.9918296620587926
5.318259129564782,0.9939579917631843
5.331965982991496,0.9973274304639634
5.345672836418209,0.9971767006858161
5.359379689844922,1.0006896439948203
5.3730865432716355,1.002582621252115
5.386793396698349,1.004239898587644
5.400500250125062,1.0058229003767714
5.414207103551775,1.0068471553228022
5.427913956978489,1.0091423484964996
5.441620810405202,1.0107278575824885
5.455327663831915,1.0113669900538813
5.4690345172586285,1.0117804589323038
5.482741370685342,1.0118251788304355
5.496448224112055,1.013087083183318
5.510155077538768,1.013288515113208
5.523861930965483,1.0128971214917568
5.537568784392196,1.0139007764478125
5.551275637818909,1.0121522415927262
5.5649824912456225,1.011992631731451
5.578689344672336,1.0114223100990467
5.592396198099049,1.0105098537088395
5.606103051525762,1.0101425781919078
5.619809904952476,1.0086686616465024
5.633516758379189,1.0065414768025676
5.647223611805902,1.0075327935638188
5.660930465232616,1.0049031537938138
5.674637318659329,1.0046947157190274
5.688344172086042,1.002656898090894
5.7020510255127554,1.0015024544413313
5.71575787893947,0.9991283519249414
5.729464732366183,0.9985702655684512
5.743171585792896,0.9962021542097046
5.7568784392196095,0.9952303894125681
5.770585292646323,0.9935311118339546
5.784292146073036,0.9918607871742269
5.797998999499749,0.9910963593609011
5.811705852926463,0.9895305984350516
5.825412706353176,0.9890755912806984
5.839119559779889,0.9870141774902682
5.852826413206603,0.9878009364020788
5.866533266633316,0.9867435177357624
5.880240120060029,0.9867854467391795
5.8939469734867425,0.9863075321425359
5.907653826913456,0.9863661073196996
5.92136068034017,0.9861231659677674
5.935067533766883,0.9868815676895158
5.9487743871935965,0.9869326669642078
5.96248124062031,0.9876184006858549
5.976188094047023,0.9897978733775288
5.989894947473736,0.9907451960036413
6.00360180090045,0.9926231488162104
6.017308654327163,0.9933909533696746
6.031015507753876,0.9970409207431212
6.04472236118059,0.9984216749583525
6.058429214607303,1.0037080525811515
6.072136068034016,1.0028129793295009
6.0858429214607295,1.0048476965642144
6.099549774887443,1.0089143878277549
6.113256628314156,1.009521642519876
6.12696348174087,1.0121693611169338
6.1406703351675835,1.0157170382749527
6.154377188594297,1.0162581969857047
6.16808404202101,1.0186135489363835
6.181790895447723,1.019971683612922
6.195497748874437,1.0206830603587853
6.20920460230115,1.0201630101668941
6.222911455727863,1.021064324220911
6.236618309154577,1.0216741810270282
6.25032516258129,1.019155862372897
6.264032016008003,1.018717625178966
6.2777388694347165,1.016341198468873
6.29144572286143,1.0133196494345833
6.305152576288143,1.011496392984825
6.318859429714857,1.0075993338079234
6.3325662831415706,1.0056770288183676
6.346273136568284,1.0020484094790572
6.359979989994997,0.9985963972885787
6.37368684342171,0.9940053971560882
6.387393696848424,0.9908005287602247
6.401100550275137,0.9870163302018121
6.41480740370185,0.9839982257643661
6.428514257128564,0.9817711006961464
6.442221110555277,0.9794622983904158
6.45592796398199,0.97623640489622
6.4696348174087035,0.9736262646895041
6.483341670835417,0.9724443857389609
6.49704852426213,0.9730702167483397
6.510755377688843,0.9718048601283321
6.524462231115558,0.9742141579469449
6.538169084542271,0.9726987544456833
6.551875937968984,0.976214413511874
6.5655827913956974,0.9777589387572613
6.579289644822411,0.9806349490440094
6.592996498249124,0.9852412707171893
6.606703351675837,0.9879378078292513
6.620410205102551,0.9919094983640131
6.634117058529264,0.9960207278299575
6.647823911955977,1.0021283243143313
6.6615307653826905,1.006263191094579
6.675237618809404,1.0089888459191545
6.688944472236117,1.0141219416327731
6.70265132566283,1.0186125696710187
6.716358179089544,1.0216552188299302
6.730065032516258,1.025330832489782
6.743771885942971,1.0279296999205
6.7574787393696845,1.0320234834628734
6.771185592796398,1.0321102973835272
6.784892446223111,1.0326967356017405
6.798599299649824,1.0338976828550135
6.812306153076538,1.0313502493735287
6.826013006503251,1.0310796034103555
6.839719859929964,1.0278829320675285
6.8534267133566775,1.0248119131886864
6.867133566783391,1.022586465263282
6.880840420210104,1.0187559813701548
6.894547273636817,1.0128447545363448
6.908254127063531,1.0116744853274324
6.921960980490245,1.0024000528471027
6.935667833916958,0.9972338299025586
6.9493746873436715,0.9919579562067616
6.963081540770385,0.9866737890297493
6.976788394197098,0.9829583321099811
6.990495247623811,0.97753654343722
7.004202101050525,0.9735121759589874
7.017908954477238,0.969759573978887
7.031615807903951,0.967249318066988
7.0453226613306645,0.9654182558681127
7.059029514757378,0.9635465497930706
7.072736368184091,0.9624424854078113
7.086443221610804,0.9629671831794111
7.100150075037518,0.96482591678185
7.113856928464231,0.9651416919727475
7.127563781890945,0.9682483576656784
7.1412706353176585,0.9721073495424472
7.154977488744372,0.9766137682243846
7.168684342171085,0.9815897972970358
7.182391195597798,0.9863954868234586
7.196098049024512,0.9936757171328199
7.209804902451225,0.9971508919175229
7.223511755877938,1.0038304162988478
7.2372186093046516,1.0092404550654102
7.250925462731365,1.0132648564723201
7.264632316158078,1.0195330539059961
7.278339169584791,1.0244530860527503
7.292046023011505,1.0299573208044486
7.305752876438218,1.0324620101221185
7.319459729864932,1.0342945648200643
7.3331665832916455,1.037694419484088
7.346873436718359,1.037571310321593
