time,flux
0.0,1.0246255498661465
0.013706853426713355,1.0266120748681982
0.02741370685342671,1.0271707089766746
0.041120560280140064,1.0263258193397875
0.05482741370685342,1.0249051488027776
0.06853426713356678,1.0231178034199955
0.08224112056028013,1.0203411008949692
0.09594797398699349,1.0168039734786152
0.10965482741370684,1.0140324008661588
0.1233616808404202,1.0098975256946674
0.13706853426713356,1.005273067200754
0.1507753876938469,1.0014356034482477
0.16448224112056026,0.997472633550007
0.1781890945472736,0.9927925902407543
0.19189594797398699,0.9907869481706932
0.20560280140070034,0.9887889020348536
0.21930965482741369,0.9870117465836413
0.23301650825412704,0.9852243912738653
0.2467233616808404,0.9857711283372609
0.26043021510755376,0.9864402208139712
0.2741370685342671,0.9878463258294894
0.28784392196098046,0.9887677215346146
0.3015507753876938,0.9906023195928123
0.31525762881440716,0.9934237992558508
0.3289644822411205,0.9967559393993908
0.34267133566783387,0.9997016725142559
0.3563781890945472,1.0028211265314741
0.3700850425212606,1.0039412981878078
0.38379189594797397,1.0073767397660303
0.3974987493746873,1.0085216903801397
0.41120560280140067,1.0098089263938432
0.424912456228114,1.0102521484937226
0.43861930965482737,1.0100208119825609
0.4523261630815407,1.0083376355557514
0.46603301650825407,1.0076899452102217
0.4797398699349674,1.0051521606248823
0.4934467233616808,1.0017100723931622
0.5071535767883941,0.9984582687732211
0.5208604302151075,0.9943026802871402
0.5345672836418208,0.9903932228814663
0.5482741370685342,0.9872307916606047
0.5619809904952475,0.9839754664836001
0.5756878439219609,0.9810862899348498
0.5893946973486743,0.9784093735038994
0.6031015507753876,0.9774796931444538
0.616808404202101,0.9759056649705735
0.6305152576288143,0.9753186521566395
0.6442221110555277,0.9753916229189169
0.657928964482241,0.9775217876334172
0.6716358179089544,0.9795670950856279
0.6853426713356677,0.9828333693872341
0.6990495247623811,0.9851392085888855
0.7127563781890944,0.9899895588819222
0.7264632316158078,0.9944653809968443
0.7401700850425212,0.9994515716798915
0.7538769384692345,1.0038651194779553
0.7675837918959479,1.0078332004379986
0.7812906453226612,1.0120154976640077
0.7949974987493746,1.0156045828364593
0.8087043521760879,1.0185232349856572
0.8224112056028013,1.0211321235515638
0.8361180590295146,1.021000950512628
0.849824912456228,1.0219933866353015
0.8635317658829413,1.0213169799165915
0.8772386193096547,1.020333321891063
0.8909454727363681,1.0185877691048935
0.9046523261630814,1.0169971071506003
0.9183591795897948,1.0141501188392106
0.9320660330165081,1.0110526547903558
0.9457728864432215,1.0079686840209003
0.9594797398699348,1.0044497022750685
0.9731865932966483,1.0020932707548176
0.9868934467233615,0.9981200753634055
1.000600300150075,0.9958496966465431
1.0143071535767882,0.9929013464499026
1.0280140070035018,0.9925156975224241
1.041720860430215,0.992043443675233
1.0554277138569284,0.9915320341272192
1.0691345672836416,0.9919657589321107
1.0828414207103552,0.992967622594791
1.0965482741370685,0.9947394510496521
1.1102551275637818,0.9982567447601214
1.123961980990495,1.001274898071882
1.1376688344172086,1.0046558813682511
1.1513756878439219,1.0064071198508335
1.1650825412706352,1.0100774276312372
1.1787893946973487,1.0129020437852188
1.192496248124062,1.014593660602379
1.2062031015507753,1.016116147617639
1.2199099549774886,1.016778951634882
1.233616808404202,1.0177938469576704
1.2473236618309154,1.0174203044859131
1.2610305152576287,1.0159034062976544
1.274737368684342,1.0144330973127789
1.2884442221110555,1.0114257347912263
1.3021510755377688,1.0088901309656435
1.315857928964482,1.0050992544275739
1.3295647823911956,0.9998138525593486
1.3432716358179089,0.9962711563628686
1.3569784892446222,0.9926042217823446
1.3706853426713355,0.9885246201785468
1.384392196098049,0.9845803899601304
1.3980990495247623,0.9816752570185596
1.4118059029514756,0.9784677546734756
1.4255127563781889,0.9756953798681475
1.4392196098049024,0.9742691028882858
1.4529264632316157,0.9739274278956055
1.466633316658329,0.9743366951509984
1.4803401700850425,0.9754699123333567
1.4940470235117558,0.9772096046431287
1.507753876938469,0.9791004139129644
1.5214607303651824,0.9822368426246182
1.5351675837918959,0.9862589476960217
1.5488744372186092,0.9902795449806158
1.5625812906453225,0.9945687275516405
1.5762881440720358,0.997395792141672
1.5899949974987493,1.0019551002112814
1.6037018509254626,1.0044312902613766
1.6174087043521759,1.0083331416696042
1.6311155577788894,1.0112520143859585
1.6448224112056027,1.012073068653384
1.658529264632316,1.0131196860879093
1.6722361180590293,1.013260041532673
1.6859429714857428,1.013782397673131
1.699649824912456,1.0113051921545664
1.7133566783391694,1.0112168847701783
1.7270635317658827,1.00775733654506
1.7407703851925962,1.0062259630652561
1.7544772386193095,1.0020158233829162
1.7681840920460228,1.0000250631294452
1.7818909454727363,0.9973545492151497
1.7955977988994496,0.9952346949175729
1.8093046523261629,0.9928537607184813
1.8230115057528762,0.9912408169985927
1.8367183591795897,0.9903607490751031
1.850425212606303,0.9905638319868797
1.8641320660330163,0.9898302189714832
1.8778389194597296,0.9906226305026633
1.891545772886443,0.9929584912683664
1.9052526263131564,0.9949074455468397
1.9189594797398697,0.9975474138099092
1.9326663331665832,1.0022662494510044
1.9463731865932965,1.005477580337138
1.9600800400200098,1.0090914944830112
1.973786893446723,1.0121842521654498
1.9874937468734366,1.0158403976785335
2.00120060030015,1.0186759041630535
2.014907453726863,1.0222978131155995
2.0286143071535765,1.0243746554849766
2.04232116058029,1.024754305522642
2.0560280140070035,1.025744841474304
2.069734867433717,1.0247715015678422
2.08344172086043,1.023328270427322
2.0971485742871434,1.021462842534192
2.1108554277138567,1.0187440037296818
2.12456228114057,1.0155783137055538
2.1382691345672833,1.01148326322727
2.1519759879939966,1.0071022738140425
2.1656828414207103,1.002383779827276
2.1793896948474236,0.997593816286757
2.193096548274137,0.9933538690392544
2.20680340170085,0.9898458121646175
2.2205102551275635,0.9856695009159864
2.234217108554277,0.9822822836204864
2.24792396198099,0.9805379510997793
2.261630815407704,0.9788682062374694
2.275337668834417,0.9785039856313859
2.2890445222611304,0.9789040615898684
2.3027513756878437,0.9806054533882104
2.316458229114557,0.9806953947658265
2.3301650825412703,0.983709448263285
2.3438719359679836,0.9865277677106569
2.3575787893946973,0.9888788720419291
2.3712856428214106,0.9919522139043118
2.384992496248124,0.994792708005687
2.3986993496748372,0.9987247299822761
2.4124062031015505,1.0024193041658325
2.426113056528264,1.004390187688672
2.439819909954977,1.0065733532649415
2.4535267633816904,1.0083275497669673
2.467233616808404,1.0084463988560506
2.4809404702351174,1.0093949871932653
2.4946473236618307,1.0070678903620898
2.508354177088544,1.005718346319286
2.5220610305152573,1.0052939920224226
2.5357678839419706,1.0027863424790302
2.549474737368684,0.999803850257781
2.5631815907953976,0.9963253359062896
2.576888444222111,0.9934473630330609
2.5905952976488242,0.9906496547788183
2.6043021510755375,0.9879239674272698
2.618009004502251,0.9852525949609465
2.631715857928964,0.9832348490001392
2.6454227113556774,0.9820865982477603
2.659129564782391,0.9817177948945081
2.6728364182091044,0.9824728041635079
2.6865432716358177,0.9827199453761264
2.700250125062531,0.9847744899630538
2.7139569784892443,0.9866057410923618
2.7276638319159576,0.9898575037169662
2.741370685342671,0.9948907231228766
2.755077538769384,0.9984622670716569
2.768784392196098,1.0017143325337738
2.7824912456228112,1.0067604716640806
2.7961980990495245,1.0112955728845725
2.809904952476238,1.015119889998847
2.823611805902951,1.0183857176078024
2.8373186593296644,1.0212736827391502
2.8510255127563777,1.0241554163445843
2.8647323661830915,1.02493968934487
2.8784392196098048,1.0262460989363016
2.892146073036518,1.0253407611071144
2.9058529264632313,1.024887534068065
2.9195597798899446,1.0233967311521588
2.933266633316658,1.0219274864559393
2.9469734867433712,1.0182080808624878
2.960680340170085,1.0141349944812772
2.9743871935967983,1.010387752691494
2.9880940470235116,1.0067291235797982
3.001800900450225,1.0028792913249525
3.015507753876938,0.9981023143934499
3.0292146073036514,0.9955941937522562
3.0429214607303647,0.9920533068139511
3.056628314157078,0.990131101600163
3.0703351675837918,0.9883541722419027
3.084042021010505,0.987237477045931
3.0977488744372184,0.9878708956716685
3.1114557278639317,0.987450718205288
3.125162581290645,0.9879893452022508
3.1388694347173582,0.990253302493391
3.1525762881440715,0.9933210592538867
3.1662831415707853,0.9945545269329884
3.1799899949974986,0.9973984557565667
3.193696848424212,0.9999831650470803
3.207403701850925,1.0046752143335855
3.2211105552776385,1.005248198533375
3.2348174087043517,1.0072975626532654
3.248524262131065,1.0089503156903519
3.262231115557779,1.010399916708539
3.275937968984492,1.0110820225751451
3.2896448224112054,1.010334315349868
3.3033516758379187,1.0096565101679136
3.317058529264632,1.0071724763552574
3.3307653826913453,1.0062749603779035
3.3444722361180586,1.0020536238534703
3.358179089544772,0.9992861002006255
3.3718859429714856,0.9950812145541499
3.385592796398199,0.9920321716484375
3.399299649824912,0.9877078081918256
3.4130065032516255,0.9848510127018425
3.4267133566783388,0.981386049817958
3.440420210105052,0.9783674107884444
3.4541270635317654,0.9759983321356938
3.467833916958479,0.975374954520652
3.4815407703851924,0.9747470750951859
3.4952476238119057,0.9750902955921003
3.508954477238619,0.9757500085245883
3.5226613306653323,0.9780061878404145
3.5363681840920456,0.980508337015893
3.550075037518759,0.9845105633019151
3.5637818909454726,0.9880497306050486
3.577488744372186,0.9924121792884091
3.591195597798899,0.9965742263273263
3.6049024512256125,1.0005073576479528
3.6186093046523258,1.0046898716854602
3.632316158079039,1.0088284505551641
3.6460230115057524,1.0121659044540634
3.659729864932466,1.0157822265438083
3.6734367183591794,1.0190754917811315
3.6871435717858927,1.0192954064142974
3.700850425212606,1.0216989721050742
3.7145572786393193,1.0201635451323445
3.7282641320660326,1.0197353313955866
3.741970985492746,1.0178923188510542
3.755677838919459,1.0164449059111953
3.769384692346173,1.0133543699378535
3.783091545772886,1.0103919808903628
3.7967983991995995,1.0077928092911494
3.810505252626313,1.0038034080435825
3.824212106053026,1.0006712437565937
3.8379189594797394,0.9982611680919176
3.8516258129064527,0.9949050973985076
3.8653326663331664,0.9941363971989104
3.8790395197598797,0.9936451212509899
3.892746373186593,0.9913071183772338
3.9064532266133063,0.9911484923433014
3.9201600800400196,0.9924681249735351
3.933866933466733,0.9937516837923065
3.947573786893446,0.9952947367228163
3.96128064032016,0.9980184750996224
3.974987493746873,1.0012907199569294
3.9886943471735865,1.0034662489382042
4.0024012006003,1.0072727337791776
4.016108054027013,1.0104318723049488
4.029814907453726,1.0135581628033374
4.04352176088044,1.0158719156884313
4.057228614307153,1.0173189217929157
4.070935467733866,1.0186358367493764
4.08464232116058,1.0192231539985461
4.098349174587293,1.0194287956065429
4.112056028014007,1.0177552308596833
4.12576288144072,1.0164534963929013
4.139469734867434,1.013096081716841
4.153176588294147,1.0105374558751252
4.16688344172086,1.0080738143967025
4.1805902951475735,1.003282448544224
4.194297148574287,0.9992284159433361
4.208004002001,0.9941392124134937
4.221710855427713,0.9901642413417938
4.235417708854427,0.9851519315023601
4.24912456228114,0.9824384555562226
4.262831415707853,0.979450459078023
4.276538269134567,0.9774741405658182
4.29024512256128,0.975070324193256
4.303951975987993,0.9745027221499996
4.317658829414707,0.9738155118656674
4.331365682841421,0.9757780615924551
4.345072536268134,0.9752848757044259
4.358779389694847,0.9808949496827162
4.3724862431215605,0.9817301428792973
4.386193096548274,0.9850310966991852
4.399899949974987,0.9891034790637845
4.4136068034017,0.9921546421711829
4.427313656828414,0.9967171469118111
4.441020510255127,0.9998609112961676
4.45472736368184,1.0034738796608393
4.468434217108554,1.0063821439217233
4.482141070535267,1.0095225794873237
4.49584792396198,1.010232794734743
4.5095547773886935,1.0118987068829541
4.523261630815408,1.0124611958659502
4.536968484242121,1.0121815717198954
4.550675337668834,1.0102733973786788
4.5643821910955475,1.0095479644728633
4.578089044522261,1.0058310325406916
4.591795897948974,1.0048872212048563
4.605502751375687,1.0018231546196146
4.619209604802401,0.9990945887297734
4.632916458229114,0.995839227767548
4.646623311655827,0.9944563780645529
4.660330165082541,0.9905579437404652
4.674037018509254,0.9900919760764104
4.687743871935967,0.9885454127836124
4.7014507253626805,0.9875614358399193
4.715157578789395,0.9886659612910367
4.728864432216108,0.9897516331683558
4.742571285642821,0.9909129794876654
4.756278139069535,0.9939841270958478
4.769984992496248,0.9967100667150881
4.783691845922961,1.0000412172610162
4.7973986993496744,1.004239346766927
4.811105552776388,1.0076438746195209
4.824812406203101,1.0118337966126127
4.838519259629814,1.0154076849921336
4.852226113056528,1.0179948700450516
4.865932966483241,1.020827923984864
4.879639819909954,1.0230897948095636
4.8933466733366675,1.024476087947551
4.907053526763381,1.025163370858903
4.920760380190095,1.02490466312618
4.934467233616808,1.0244278729658718
4.948174087043522,1.022725358138806
4.961880940470235,1.0202523473941063
4.975587793896948,1.0160769402660643
4.9892946473236615,1.013019210779491
5.003001500750375,1.0096499686162084
5.016708354177088,1.0046286399151847
5.030415207603801,1.0012498023352754
5.044122061030515,0.9960905625257728
5.057828914457228,0.9922356289954634
5.071535767883941,0.9883648327949428
5.0852426213106545,0.9846208270427665
5.098949474737368,0.9835768410590185
5.112656328164081,0.9813704204782971
5.126363181590795,0.9805677434523119
5.140070035017509,0.9794680190881209
5.153776888444222,0.9806398738013953
5.167483741870935,0.9813299543802539
5.1811905952976485,0.9843152604071674
5.194897448724362,0.9873496301624638
5.208604302151075,0.988947087415736
5.222311155577788,0.993788248014699
5.236018009004502,0.9939002776412375
5.249724862431215,0.9979814139159778
5.263431715857928,1.0011265445080513
5.2771385692846415,1.004668821351895
5.290845422711355,1.0051923301259627
5.304552276138068,1.0070950014816065
5.318259129564782,1.0078861896529576
5.331965982991496,1.0077738598610984
5.345672836418209,1.0067904163646295
5.359379689844922,1.005546345366519
5.3730865432716355,1.0043475665413155
5.386793396698349,1.0010292393398708
5.400500250125062,0.9983571053557562
5.414207103551775,0.9956159902634198
5.427913956978489,0.9921649064494843
5.441620810405202,0.9890821521090876
5.455327663831915,0.9857915883869358
5.4690345172586285,0.983962441310907
5.482741370685342,0.9817361729526601
5.496448224112055,0.9813203471245732
5.510155077538768,0.9796961769959116
5.523861930965483,0.9797047776453862
5.537568784392196,0.9808274862228783
5.551275637818909,0.9829993891619431
5.5649824912456225,0.9854123044895146
5.578689344672336,0.987238694229826
5.592396198099049,0.9915537958063008
5.606103051525762,0.9957742676106862
5.619809904952476,0.9993965436377965
5.633516758379189,1.00418983705907
5.647223611805902,1.0090296538159509
5.660930465232616,1.012312942718876
5.674637318659329,1.0169366305993133
5.688344172086042,1.020162434116078
5.7020510255127554,1.0218572276151063
5.71575787893947,1.023659320733091
5.729464732366183,1.0250844871207334
5.743171585792896,1.024635944558144
5.7568784392196095,1.0244951603044024
5.770585292646323,1.0234590831099357
5.784292146073036,1.021228100546501
5.797998999499749,1.0194086330584595
5.811705852926463,1.0151447052007208
5.825412706353176,1.0118583876129235
5.839119559779889,1.008300177718932
5.852826413206603,1.0040584700158546
5.866533266633316,1.0008684656939166
5.880240120060029,0.9969400261963846
5.8939469734867425,0.99362169184621
5.907653826913456,0.9913845644255554
5.92136068034017,0.9896430450914769
5.935067533766883,0.9877454336605166
5.9487743871935965,0.9884480922338519
5.96248124062031,0.9894322547212365
5.976188094047023,0.9905462092798124
5.989894947473736,0.9906959062630974
6.00360180090045,0.9938006293690319
6.017308654327163,0.9960177606078101
6.031015507753876,0.9988126450844085
6.04472236118059,1.001311600190732
6.058429214607303,1.0036288576823316
6.072136068034016,1.007769603704736
6.0858429214607295,1.009294248081242
6.099549774887443,1.0109397935005033
6.113256628314156,1.0125967250208112
6.12696348174087,1.0127731006593779
6.1406703351675835,1.0125922516200796
6.154377188594297,1.0113268472611465
6.16808404202101,1.0093911481989308
6.181790895447723,1.0066297498167442
6.195497748874437,1.0046267994289122
6.20920460230115,1.0007079593980934
6.222911455727863,0.9972534068362575
6.236618309154577,0.9918105561753205
6.25032516258129,0.9892685575446878
6.264032016008003,0.985671142836833
6.2777388694347165,0.9817528364474916
6.29144572286143,0.978541890492843
6.305152576288143,0.9761181853450036
6.318859429714857,0.9748572077485583
6.3325662831415706,0.9741654747874866
6.346273136568284,0.9743437975583775
6.359979989994997,0.9747909784258811
6.37368684342171,0.9762228019413922
6.387393696848424,0.9786669767458804
6.401100550275137,0.9822100428463871
6.41480740370185,0.9847011446795507
6.428514257128564,0.9893597063899701
6.442221110555277,0.99403872699554
6.45592796398199,0.99761464508394
6.4696348174087035,1.002313916418743
6.483341670835417,1.0062556028782832
6.49704852426213,1.0102751089150088
6.510755377688843,1.0126130671502553
6.524462231115558,1.014906006909836
6.538169084542271,1.0177548229818834
6.551875937968984,1.0182249072107579
6.5655827913956974,1.0186658210135593
6.579289644822411,1.0180742404654368
6.592996498249124,1.0173594324781006
6.606703351675837,1.0164042622826293
6.620410205102551,1.013627155861081
6.634117058529264,1.010055238746982
6.647823911955977,1.007576967350088
6.6615307653826905,1.003401780364075
6.675237618809404,1.001344620682638
6.688944472236117,0.9976266623785843
6.70265132566283,0.995316399022008
6.716358179089544,0.9941285968877343
6.730065032516258,0.9916079829691498
6.743771885942971,0.9917607320916655
6.7574787393696845,0.9913478703664584
6.771185592796398,0.9924089113573594
6.784892446223111,0.9941158670866886
6.798599299649824,0.9951919303064758
6.812306153076538,0.9979414817713443
6.826013006503251,1.0012330832375504
6.839719859929964,1.0041126196526784
6.8534267133566775,1.00764759165872
6.867133566783391,1.0105263022887536
6.880840420210104,1.0134313622786013
6.894547273636817,1.0161423422243676
6.908254127063531,1.0180733937680349
6.921960980490245,1.0196071307688155
6.935667833916958,1.0216603297135691
6.9493746873436715,1.0210808073974087
6.963081540770385,1.0206767852776408
6.976788394197098,1.0181961515517444
6.990495247623811,1.0162957691791608
7.004202101050525,1.0126561592767982
7.017908954477238,1.0104164962977042
7.031615807903951,1.0056404385162803
7.0453226613306645,1.001811836748681
7.059029514757378,0.9970391795407633
7.072736368184091,0.9921939893918441
7.086443221610804,0.9880973886041586
7.100150075037518,0.9842805254600943
7.113856928464231,0.9815338743828208
7.127563781890945,0.9792435191206293
7.1412706353176585,0.9765314732797502
7.154977488744372,0.9749273252838173
7.168684342171085,0.9744103859515664
7.182391195597798,0.9757300503710052
7.196098049024512,0.9763502937478923
7.209804902451225,0.9774418173649575
7.223511755877938,0.981448245015694
7.2372186093046516,0.9839943605137724
7.250925462731365,0.9883637369308761
7.264632316158078,0.9916079460719688
7.278339169584791,0.994328992740233
7.292046023011505,0.9990942669467512
7.305752876438218,1.001651328546207
7.319459729864932,1.0050624302412374
7.3331665832916455,1.0070365020860343
7.346873436718359,1.0093325267080042
