time,flux
0.0,1.0201932839457584
0.013706853426713355,1.02442388111366
0.02741370685342671,1.0277341638704536
0.041120560280140064,1.0288778380801322
0.05482741370685342,1.0314250166717238
0.06853426713356678,1.0303655817515522
0.08224112056028013,1.0306000434342635
0.09594797398699349,1.030208063264998
0.10965482741370684,1.0275709525834045
0.1233616808404202,1.0235137886493464
0.13706853426713356,1.0171805410853991
0.1507753876938469,1.0128916019591803
0.16448224112056026,1.009852509960323
0.1781890945472736,1.002207096035477
0.19189594797398699,0.995864694455395
0.20560280140070034,0.9904892440776251
0.21930965482741369,0.9821384575727798
0.23301650825412704,0.9774452650836823
0.2467233616808404,0.9733391808794243
0.26043021510755376,0.9680306736860936
0.2741370685342671,0.9625782670533242
0.28784392196098046,0.9612122212028833
0.3015507753876938,0.9591150396299933
0.31525762881440716,0.9568300237230205
0.3289644822411205,0.9570083652695293
0.34267133566783387,0.9605118471256412
0.3563781890945472,0.9633535529778159
0.3700850425212606,0.9667546232024886
0.38379189594797397,0.9704025510652782
0.3974987493746873,0.9744907766380414
0.41120560280140067,0.9812852114897399
0.424912456228114,0.9860778517953417
0.43861930965482737,0.9936746841068352
0.4523261630815407,1.0012143967809568
0.46603301650825407,1.0073405382435787
0.4797398699349674,1.0142706982461003
0.4934467233616808,1.021814969341415
0.5071535767883941,1.0244757049235134
0.5208604302151075,1.0291000398797823
0.5345672836418208,1.0330829845607952
0.5482741370685342,1.037966647051216
0.5619809904952475,1.0373959123928842
0.5756878439219609,1.0401436734279434
0.5893946973486743,1.0388684337815575
0.6031015507753876,1.0388044591520347
0.616808404202101,1.0334571590372919
0.6305152576288143,1.0316741787129131
0.6442221110555277,1.0291060354922745
0.657928964482241,1.0252726875783154
0.6716358179089544,1.0198128896599337
0.6853426713356677,1.011977800657638
0.6990495247623811,1.0076062049965477
0.7127563781890944,1.001470150677863
0.7264632316158078,0.9966043776940348
0.7401700850425212,0.9917281434537348
0.7538769384692345,0.9886902369012519
0.7675837918959479,0.9819136758679067
0.7812906453226612,0.9799670858625378
0.7949974987493746,0.976965368373223
0.8087043521760879,0.9753138527709923
0.8224112056028013,0.9753078381495011
0.8361180590295146,0.9745067778065056
0.849824912456228,0.9750437145396941
0.8635317658829413,0.9761996000656096
0.8772386193096547,0.9761758336123617
0.8909454727363681,0.9799431972907917
0.9046523261630814,0.9827279781651888
0.9183591795897948,0.9864531093501957
0.9320660330165081,0.9905594358588239
0.9457728864432215,0.9957241957155115
0.9594797398699348,1.0006427626347243
0.9731865932966483,1.0039612186675997
0.9868934467233615,1.0068361219070217
1.000600300150075,1.0098696631794064
1.0143071535767882,1.011281760720066
1.0280140070035018,1.0163685454076137
1.041720860430215,1.0176198206240272
1.0554277138569284,1.0189515442646622
1.0691345672836416,1.0203698349097896
1.0828414207103552,1.0226490830110382
1.0965482741370685,1.02210154423672
1.1102551275637818,1.0205393058205456
1.123961980990495,1.0198896265543358
1.1376688344172086,1.0152553102440849
1.1513756878439219,1.0157536288292213
1.1650825412706352,1.0120307927299912
1.1787893946973487,1.0097186351494374
1.192496248124062,1.0089255777818624
1.2062031015507753,1.0033626105399134
1.2199099549774886,1.001266735858848
1.233616808404202,0.9970319001053366
1.2473236618309154,0.9972612161115005
1.2610305152576287,0.9910007887862624
1.274737368684342,0.9903789866859332
1.2884442221110555,0.9861550618174172
1.3021510755377688,0.9865299626230063
1.315857928964482,0.9816740524174695
1.3295647823911956,0.9813063064450965
1.3432716358179089,0.9765714269775394
1.3569784892446222,0.9788262153187848
1.3706853426713355,0.9749695686213035
1.384392196098049,0.9762301539678057
1.3980990495247623,0.9753617212786362
1.4118059029514756,0.9752163993888444
1.4255127563781889,0.977161752646559
1.4392196098049024,0.9781475927662306
1.4529264632316157,0.9783605808380025
1.466633316658329,0.9807383930715392
1.4803401700850425,0.9809195029715372
1.4940470235117558,0.9844831716631877
1.507753876938469,0.9883229143727816
1.5214607303651824,0.9904672945843699
1.5351675837918959,0.9927265259059352
1.5488744372186092,0.9979703118532316
1.5625812906453225,0.999164151012588
1.5762881440720358,1.0046561221231376
1.5899949974987493,1.0103474353836661
1.6037018509254626,1.0115100276564526
1.6174087043521759,1.0159362921459532
1.6311155577788894,1.0191971792729586
1.6448224112056027,1.0188068717502352
1.658529264632316,1.021354042169746
1.6722361180590293,1.025574622053555
1.6859429714857428,1.0256898633220075
1.699649824912456,1.0245976203002745
1.7133566783391694,1.0270787687868135
1.7270635317658827,1.028775961804859
1.7407703851925962,1.0262526282024589
1.7544772386193095,1.0251749713782417
1.7681840920460228,1.0227612108910045
1.7818909454727363,1.0178090168331873
1.7955977988994496,1.0155597441021058
1.8093046523261629,1.0107210204172685
1.8230115057528762,1.0078776660748427
1.8367183591795897,1.0038322347143245
1.850425212606303,0.9991440219075198
1.8641320660330163,0.9928154866909124
1.8778389194597296,0.9881171824789579
1.891545772886443,0.9854292329833548
1.9052526263131564,0.9809962047999474
1.9189594797398697,0.978654896127442
1.9326663331665832,0.9758082123580212
1.9463731865932965,0.9752205171146469
1.9600800400200098,0.9716735063325681
1.973786893446723,0.9731952185888948
1.9874937468734366,0.9755170932309191
2.00120060030015,0.9746410508718009
2.014907453726863,0.9752337832230121
2.0286143071535765,0.983023259125453
2.04232116058029,0.9840822145251671
2.0560280140070035,0.9912957187366527
2.069734867433717,0.9938618447106301
2.08344172086043,0.9995157358122653
2.0971485742871434,1.005784892801764
2.1108554277138567,1.0100520245892262
2.12456228114057,1.0147255831592572
2.1382691345672833,1.021378116828214
2.1519759879939966,1.023544328838786
2.1656828414207103,1.0291010609374664
2.1793896948474236,1.0316975162464348
2.193096548274137,1.0348748798487928
2.20680340170085,1.0342169151280134
2.2205102551275635,1.0351897476182441
2.234217108554277,1.0338548623792503
2.24792396198099,1.0319762133236725
2.261630815407704,1.0292685720159476
2.275337668834417,1.0263787787466923
2.2890445222611304,1.020230305739249
2.3027513756878437,1.014240886980229
2.316458229114557,1.0100747564532648
2.3301650825412703,1.001300789701714
2.3438719359679836,0.9978556409076883
2.3575787893946973,0.9886552885411984
2.3712856428214106,0.9832284739283654
2.384992496248124,0.9765004985214968
2.3986993496748372,0.9712368076128068
2.4124062031015505,0.9689131885504003
2.426113056528264,0.9624558800636743
2.439819909954977,0.9584112872736198
2.4535267633816904,0.9576083928113562
2.467233616808404,0.9552864941567193
2.4809404702351174,0.9581364753530388
2.4946473236618307,0.9582209237284492
2.508354177088544,0.9590485763238689
2.5220610305152573,0.9626847972866074
2.5357678839419706,0.968518559871234
2.549474737368684,0.9725053401161832
2.5631815907953976,0.9783628865660009
2.576888444222111,0.9862541816263766
2.5905952976488242,0.9914537081269188
2.6043021510755375,0.9983202506148713
2.618009004502251,1.004777732000612
2.631715857928964,1.0127356634547862
2.6454227113556774,1.0161497929596677
2.659129564782391,1.0207398156124767
2.6728364182091044,1.0260296849408552
2.6865432716358177,1.0301373203128956
2.700250125062531,1.032469908980183
2.7139569784892443,1.032765364733565
2.7276638319159576,1.0338835542718794
2.741370685342671,1.0332565376719611
2.755077538769384,1.0320860571795512
2.768784392196098,1.0302694782788104
2.7824912456228112,1.0257351422071606
2.7961980990495245,1.0225790049276386
2.809904952476238,1.0192029565459755
2.823611805902951,1.014801986400315
2.8373186593296644,1.0095930145327834
2.8510255127563777,1.00427580780455
2.8647323661830915,0.9985722870809186
2.8784392196098048,0.9967654740205284
2.892146073036518,0.9908280191496954
2.9058529264632313,0.9868198613995374
2.9195597798899446,0.9833014311552128
2.933266633316658,0.9807064596920969
2.9469734867433712,0.9786055906033256
2.960680340170085,0.9790871192292027
2.9743871935967983,0.9765338996683659
2.9880940470235116,0.9787340348397959
3.001800900450225,0.9769974649661548
3.015507753876938,0.9797532315275986
3.0292146073036514,0.9804249725711046
3.0429214607303647,0.9862506472012266
3.056628314157078,0.9864697262486382
3.0703351675837918,0.9904497145669997
3.084042021010505,0.9932152250022528
3.0977488744372184,0.9965827166011455
3.1114557278639317,1.002238615354316
3.125162581290645,1.0035018289820947
3.1388694347173582,1.0081283944456287
3.1525762881440715,1.012026142467175
3.1662831415707853,1.0142212846127598
3.1799899949974986,1.0179072148918924
3.193696848424212,1.0200543954819956
3.207403701850925,1.0226975461137429
3.2211105552776385,1.0205824589546812
3.2348174087043517,1.0223195029767316
3.248524262131065,1.0248966750792448
3.262231115557779,1.023515140969176
3.275937968984492,1.0218495065747675
3.2896448224112054,1.0222322840568268
3.3033516758379187,1.0209084354619968
3.317058529264632,1.0155876605308833
3.3307653826913453,1.0149177741143252
3.3444722361180586,1.0118927225275063
3.358179089544772,1.0102833382129428
3.3718859429714856,1.0066400214537576
3.385592796398199,1.0056076054901841
3.399299649824912,1.0004835153829645
3.4130065032516255,0.9987937703457817
3.4267133566783388,0.995069270833359
3.440420210105052,0.991959527515687
3.4541270635317654,0.9869391029732064
3.467833916958479,0.9859610863836302
3.4815407703851924,0.9840273725864773
3.4952476238119057,0.98080059470104
3.508954477238619,0.9795736881281318
3.5226613306653323,0.9775062543637032
3.5363681840920456,0.9754872802670637
3.550075037518759,0.9757163129372235
3.5637818909454726,0.9765560443921564
3.577488744372186,0.9746264198372527
3.591195597798899,0.9754910377150473
3.6049024512256125,0.9752238601370594
3.6186093046523258,0.9760490267217822
3.632316158079039,0.9780702447016647
3.6460230115057524,0.9801935141062639
3.659729864932466,0.9806267069935513
3.6734367183591794,0.9857362503171114
3.6871435717858927,0.9877003750969514
3.700850425212606,0.9918850324098343
3.7145572786393193,0.9979818547889494
3.7282641320660326,1.0004206895274093
3.741970985492746,1.0043032762755453
3.755677838919459,1.0073516110834193
3.769384692346173,1.008052299972342
3.783091545772886,1.014611010290616
3.7967983991995995,1.0185436706582862
3.810505252626313,1.021913413825898
3.824212106053026,1.0242494298214968
3.8379189594797394,1.0247954825428551
3.8516258129064527,1.02340084102784
3.8653326663331664,1.0261421635085233
3.8790395197598797,1.0270549849924935
3.892746373186593,1.0238473781038393
3.9064532266133063,1.0230000917019884
3.9201600800400196,1.0208268392343558
3.933866933466733,1.019638598143341
3.947573786893446,1.0117174670660802
3.96128064032016,1.0099204034676057
3.974987493746873,1.0048188991072813
3.9886943471735865,1.0008085221905711
4.0024012006003,0.9965386536566007
4.016108054027013,0.9887472338394422
4.029814907453726,0.9874700501345273
4.04352176088044,0.9813068857615581
4.057228614307153,0.9779251102022335
4.070935467733866,0.9753673221827701
4.08464232116058,0.9739635048881266
4.098349174587293,0.9719281129263009
4.112056028014007,0.9709786437104251
4.12576288144072,0.9733589364651051
4.139469734867434,0.9722534414288357
4.153176588294147,0.9741014005630779
4.16688344172086,0.9765836203771843
4.1805902951475735,0.9820739650197128
4.194297148574287,0.9870955064095908
4.208004002001,0.993218883420175
4.221710855427713,0.9977194836072445
4.235417708854427,1.004048652324849
4.24912456228114,1.0089160169965004
4.262831415707853,1.0112026440063082
4.276538269134567,1.02195075670511
4.29024512256128,1.026701908715264
4.303951975987993,1.0289230583452813
4.317658829414707,1.0339060032230625
4.331365682841421,1.0344465895487942
4.345072536268134,1.0381977682703254
4.358779389694847,1.0380566761314856
4.3724862431215605,1.0400249582516725
4.386193096548274,1.040564397164075
4.399899949974987,1.0369741265051968
4.4136068034017,1.0330377776231923
4.427313656828414,1.0286703246983848
4.441020510255127,1.0233428033380803
4.45472736368184,1.0190111957179677
4.468434217108554,1.011965537582625
4.482141070535267,1.0051586176319043
4.49584792396198,0.9999636963367856
4.5095547773886935,0.9935983419985809
4.523261630815408,0.9840921328660612
4.536968484242121,0.980360067844139
4.550675337668834,0.9737657475571175
4.5643821910955475,0.9693580777502382
4.578089044522261,0.9639949387195487
4.591795897948974,0.9600092103106671
4.605502751375687,0.959986816220218
4.619209604802401,0.9593313252760486
4.632916458229114,0.9600651073618346
4.646623311655827,0.9600553292223285
4.660330165082541,0.9615930378022159
4.674037018509254,0.9655729407620948
4.687743871935967,0.9697510706227868
4.7014507253626805,0.9753127025593714
4.715157578789395,0.9795192233066057
4.728864432216108,0.986111531308623
4.742571285642821,0.9920025438579667
4.756278139069535,0.9982695695258428
4.769984992496248,1.0029806253446027
4.783691845922961,1.0082062921879669
4.7973986993496744,1.0157007093157682
4.811105552776388,1.0186809728738053
4.824812406203101,1.0229630223604904
4.838519259629814,1.0265652594151786
4.852226113056528,1.0278262772851667
4.865932966483241,1.0299221187052716
4.879639819909954,1.0318558031242746
4.8933466733366675,1.0281230244194577
4.907053526763381,1.0306327402118605
4.920760380190095,1.0234136501518054
4.934467233616808,1.0186772322791875
4.948174087043522,1.0161228003918736
4.961880940470235,1.0139524414036203
4.975587793896948,1.0086667091703774
4.9892946473236615,1.0061214157991436
5.003001500750375,1.0005830367508515
5.016708354177088,0.9966654196927616
5.030415207603801,0.9918878436628934
5.044122061030515,0.9905067794499998
5.057828914457228,0.9854436892594769
5.071535767883941,0.9829550796990408
5.0852426213106545,0.9817649828037751
5.098949474737368,0.9782763529780963
5.112656328164081,0.9790616200619954
5.126363181590795,0.9777356472790398
5.140070035017509,0.976252289165609
5.153776888444222,0.9787680205482443
5.167483741870935,0.9789654789676019
5.1811905952976485,0.9814457320899223
5.194897448724362,0.9849826696352149
5.208604302151075,0.9880150400693241
5.222311155577788,0.9905898033630037
5.236018009004502,0.9924211105539013
5.249724862431215,0.9979378091549634
5.263431715857928,0.9989858742833552
5.2771385692846415,1.0037360756992073
5.290845422711355,1.0068785516850765
5.304552276138068,1.0101596706334393
5.318259129564782,1.0125999421807494
5.331965982991496,1.015405438575726
5.345672836418209,1.0176668220397869
5.359379689844922,1.0192016330547944
5.3730865432716355,1.0204841550981874
5.386793396698349,1.0218388668642355
5.400500250125062,1.0244699998862927
5.414207103551775,1.0241331425948708
5.427913956978489,1.025067149169827
5.441620810405202,1.0249006628127715
5.455327663831915,1.021944187170195
5.4690345172586285,1.0206737216687924
5.482741370685342,1.0204338958243468
5.496448224112055,1.0186130123755623
5.510155077538768,1.0174246923470236
5.523861930965483,1.012849313401148
5.537568784392196,1.0111819126087782
5.551275637818909,1.0079329295139563
5.5649824912456225,1.0044342861857043
5.578689344672336,1.00141806095432
5.592396198099049,0.9971000659366656
5.606103051525762,0.996268461731231
5.619809904952476,0.991712646816779
5.633516758379189,0.9900882214688135
5.647223611805902,0.9853961957166987
5.660930465232616,0.9806260961518498
5.674637318659329,0.9806404999451654
5.688344172086042,0.9789140714373783
5.7020510255127554,0.9779240497449565
5.71575787893947,0.977964719908793
5.729464732366183,0.9750540060518265
5.743171585792896,0.9732164297235691
5.7568784392196095,0.9735505688342118
5.770585292646323,0.974949234973798
5.784292146073036,0.9754960020066277
5.797998999499749,0.976721352624432
5.811705852926463,0.9792912354063877
5.825412706353176,0.9815213094763666
5.839119559779889,0.988044231643021
5.852826413206603,0.988922495818875
5.866533266633316,0.9924373631666982
5.880240120060029,0.9969162716003668
5.8939469734867425,1.002270345605468
5.907653826913456,1.006552887169296
5.92136068034017,1.0108181392426838
5.935067533766883,1.0144475880730708
5.9487743871935965,1.017302850221917
5.96248124062031,1.0199002488653657
5.976188094047023,1.0217973516143701
5.989894947473736,1.0230008076277466
6.00360180090045,1.023733191393274
6.017308654327163,1.026251980334052
6.031015507753876,1.0245721307175764
6.04472236118059,1.023303699078114
6.058429214607303,1.022327500619763
6.072136068034016,1.0181879754283267
6.0858429214607295,1.0160063623446542
6.099549774887443,1.0118028648875406
6.113256628314156,1.0091128254710158
6.12696348174087,1.0026943856670845
6.1406703351675835,0.9976718244847147
6.154377188594297,0.9915882052992026
6.16808404202101,0.9880540554194911
6.181790895447723,0.981531316097105
6.195497748874437,0.9780544671474452
6.20920460230115,0.9745491195842968
6.222911455727863,0.9702134606651399
6.236618309154577,0.9683394129964145
6.25032516258129,0.9650787488651068
6.264032016008003,0.966592130011765
6.2777388694347165,0.9652419333017008
6.29144572286143,0.969181799268174
6.305152576288143,0.9754953530012352
6.318859429714857,0.9759095493156011
6.3325662831415706,0.9805540244277366
6.346273136568284,0.9846451230900298
6.359979989994997,0.989797658994025
6.37368684342171,0.9973704019163423
6.387393696848424,1.0022511368584353
6.401100550275137,1.0091120195159284
6.41480740370185,1.0168598656449865
6.428514257128564,1.0227971939682343
6.442221110555277,1.0280206597772454
6.45592796398199,1.0343635535401907
6.4696348174087035,1.0361671692118777
6.483341670835417,1.0401260951310438
6.49704852426213,1.042126320016276
6.510755377688843,1.0442694237861543
6.524462231115558,1.0431722234631424
6.538169084542271,1.0430005267926883
6.551875937968984,1.039015884898085
6.5655827913956974,1.0375151428062253
6.579289644822411,1.0311809396401268
6.592996498249124,1.0251964140284155
6.606703351675837,1.0207273341638108
6.620410205102551,1.0145495702606075
6.634117058529264,1.0086525455781628
6.647823911955977,1.0014467372481837
6.6615307653826905,0.9944936217241043
6.675237618809404,0.9898410787452417
6.688944472236117,0.9821763593869731
6.70265132566283,0.9758592309888341
6.716358179089544,0.973428836434815
6.730065032516258,0.9682531116113585
6.743771885942971,0.9692010628658829
6.7574787393696845,0.9629250095808246
6.771185592796398,0.965404539893083
6.784892446223111,0.9636769258580458
6.798599299649824,0.9645228396385417
6.812306153076538,0.9658300896315458
6.826013006503251,0.9696032682600192
6.839719859929964,0.9734576311364117
6.8534267133566775,0.9784317487042107
6.867133566783391,0.9849398683046302
6.880840420210104,0.9882526482493452
6.894547273636817,0.9940940974129524
6.908254127063531,0.9995565090875874
6.921960980490245,1.00594742861847
6.935667833916958,1.0104567031077798
6.9493746873436715,1.0131841532676322
6.963081540770385,1.0176294405675026
6.976788394197098,1.0210689097441747
6.990495247623811,1.025264196126355
7.004202101050525,1.0263301113685914
7.017908954477238,1.0248640659851778
7.031615807903951,1.0279306774893884
7.0453226613306645,1.0258068317450761
7.059029514757378,1.023457808716644
7.072736368184091,1.0214834426963824
7.086443221610804,1.0174586909874845
7.100150075037518,1.0128241261079407
7.113856928464231,1.0111241321676565
7.127563781890945,1.0040826675888301
7.1412706353176585,1.001744413111941
7.154977488744372,0.9957999858503683
7.168684342171085,0.994654900332961
7.182391195597798,0.9901584602420295
7.196098049024512,0.9843539453666088
7.209804902451225,0.9853974544770574
7.223511755877938,0.9826474625826065
7.2372186093046516,0.9799385897582769
7.250925462731365,0.9765722461687616
7.264632316158078,0.97636628741408
7.278339169584791,0.9750997842947172
7.292046023011505,0.9768781761363463
7.305752876438218,0.9758562040834129
7.319459729864932,0.9788588905544565
7.3331665832916455,0.9796268599706146
7.346873436718359,0.9824752892016108
