time,flux
0.0,0.9882735854035785
0.013706853426713355,0.981570663706215
0.02741370685342671,0.9732678159959229
0.041120560280140064,0.9666973308965464
0.05482741370685342,0.9580609074110027
0.06853426713356678,0.9542789137120753
0.08224112056028013,0.9503380309821924
0.09594797398699349,0.9483117658388088
0.10965482741370684,0.9511228423056273
0.1233616808404202,0.9531548441972977
0.13706853426713356,0.9587978056112629
0.1507753876938469,0.961978053830988
0.16448224112056026,0.9684277729722004
0.1781890945472736,0.9762248180153739
0.19189594797398699,0.9850034542639915
0.20560280140070034,0.9966554259586732
0.21930965482741369,1.0053246178992588
0.23301650825412704,1.0137864872180289
0.2467233616808404,1.023003408206021
0.26043021510755376,1.0303845367709912
0.2741370685342671,1.0376831668733044
0.28784392196098046,1.0397406046465905
0.3015507753876938,1.0443348336880167
0.31525762881440716,1.0468551402047963
0.3289644822411205,1.0461293503004137
0.34267133566783387,1.0444673904212836
0.3563781890945472,1.0388262158734585
0.3700850425212606,1.033587130678119
0.38379189594797397,1.0291861547765278
0.3974987493746873,1.019926809223712
0.41120560280140067,1.012438529908821
0.424912456228114,1.0044328427507112
0.43861930965482737,0.9965818752976509
0.4523261630815407,0.9881052109686056
0.46603301650825407,0.9799637720077193
0.4797398699349674,0.9720466326584785
0.4934467233616808,0.9683971888969098
0.5071535767883941,0.9618752020745203
0.5208604302151075,0.961571586211833
0.5345672836418208,0.9590651902586439
0.5482741370685342,0.9582443409126009
0.5619809904952475,0.9619869991403447
0.5756878439219609,0.966099685668794
0.5893946973486743,0.9708839070399813
0.6031015507753876,0.9755300653163935
0.616808404202101,0.9820866128937944
0.6305152576288143,0.9882041767458791
0.6442221110555277,0.9936435054968734
0.657928964482241,1.0007653722803662
0.6716358179089544,1.0079719830843403
0.6853426713356677,1.0136404530966125
0.6990495247623811,1.0183603616587789
0.7127563781890944,1.0234238142795267
0.7264632316158078,1.02596896568701
0.7401700850425212,1.0265576255230822
0.7538769384692345,1.028251457715785
0.7675837918959479,1.0291102699193164
0.7812906453226612,1.027192682130295
0.7949974987493746,1.0266430090560994
0.8087043521760879,1.0248048390343258
0.8224112056028013,1.0209300591847525
0.8361180590295146,1.0179614575536104
0.849824912456228,1.0158011187122156
0.8635317658829413,1.0122641619873525
0.8772386193096547,1.0084655543423662
0.8909454727363681,1.0063880549628774
0.9046523261630814,1.0021380992085684
0.9183591795897948,1.000462856371858
0.9320660330165081,0.9973269472752712
0.9457728864432215,0.9983152423643284
0.9594797398699348,0.9942009088832486
0.9731865932966483,0.992950119962375
0.9868934467233615,0.9922460373389436
1.000600300150075,0.9902492841497377
1.0143071535767882,0.9899185341620645
1.0280140070035018,0.9918114598257496
1.041720860430215,0.9914420235994458
1.0554277138569284,0.9899365003047329
1.0691345672836416,0.9881382709883073
1.0828414207103552,0.9892279507188603
1.0965482741370685,0.987402908688458
1.1102551275637818,0.9863016324173091
1.123961980990495,0.9848142632963086
1.1376688344172086,0.9853863555919159
1.1513756878439219,0.9834524673479303
1.1650825412706352,0.9822545756392288
1.1787893946973487,0.9819645668902929
1.192496248124062,0.9839378838404673
1.2062031015507753,0.9861919953884891
1.2199099549774886,0.9869507396217772
1.233616808404202,0.9855803235476159
1.2473236618309154,0.9892484384873329
1.2610305152576287,0.9937499214267838
1.274737368684342,0.9979028137584954
1.2884442221110555,1.0007589006434383
1.3021510755377688,1.0040117971153604
1.315857928964482,1.0100124740591079
1.3295647823911956,1.0138678723531285
1.3432716358179089,1.0202212863162912
1.3569784892446222,1.0243965245368831
1.3706853426713355,1.0276016742157552
1.384392196098049,1.0297438601811715
1.3980990495247623,1.0311170803340457
1.4118059029514756,1.030218244181353
1.4255127563781889,1.029261786708769
1.4392196098049024,1.0278918561979804
1.4529264632316157,1.0229209233933012
1.466633316658329,1.0188982016529085
1.4803401700850425,1.0148435994281984
1.4940470235117558,1.00969719885777
1.507753876938469,1.0021806453309052
1.5214607303651824,0.9956757896312676
1.5351675837918959,0.9878445153198848
1.5488744372186092,0.9807102467907868
1.5625812906453225,0.9750822940780838
1.5762881440720358,0.9699139091185137
1.5899949974987493,0.9632759936457319
1.6037018509254626,0.9616647253268942
1.6174087043521759,0.9595616736160361
1.6311155577788894,0.9591125379218416
1.6448224112056027,0.9590402550818846
1.658529264632316,0.9624199575513579
1.6722361180590293,0.9660434040536755
1.6859429714857428,0.9734813250057035
1.699649824912456,0.9781211740587349
1.7133566783391694,0.9866973891351719
1.7270635317658827,0.995741855693841
1.7407703851925962,1.0062485494456959
1.7544772386193095,1.0125629850553162
1.7681840920460228,1.0224136534000505
1.7818909454727363,1.0328039758609697
1.7955977988994496,1.0381960192842383
1.8093046523261629,1.042268324225354
1.8230115057528762,1.0488429283485854
1.8367183591795897,1.0505276182001697
1.850425212606303,1.0522946850439538
1.8641320660330163,1.0496856682785334
1.8778389194597296,1.0484913509559832
1.891545772886443,1.042969961121253
1.9052526263131564,1.0364181466839344
1.9189594797398697,1.0281893577983423
1.9326663331665832,1.0188071712166689
1.9463731865932965,1.012643712502795
1.9600800400200098,1.0004585372690116
1.973786893446723,0.9927057385566878
1.9874937468734366,0.9828935443572914
2.00120060030015,0.9743328197452502
2.014907453726863,0.9663529417170019
2.0286143071535765,0.9605064538042241
2.04232116058029,0.9560380228059244
2.0560280140070035,0.9530023129501053
2.069734867433717,0.9523139056255615
2.08344172086043,0.9498442495748164
2.0971485742871434,0.9545492135110407
2.1108554277138567,0.9567977279214382
2.12456228114057,0.9619518942830467
2.1382691345672833,0.9683580006057804
2.1519759879939966,0.9760707442559927
2.1656828414207103,0.9838206618521951
2.1793896948474236,0.99227818520411
2.193096548274137,0.9998658163318709
2.20680340170085,1.0071100433109956
2.2205102551275635,1.015562863515483
2.234217108554277,1.0204898717324045
2.24792396198099,1.0250487752564899
2.261630815407704,1.0285687002420743
2.275337668834417,1.031149229908277
2.2890445222611304,1.0330487682054885
2.3027513756878437,1.0306812753085353
2.316458229114557,1.0303027266527935
2.3301650825412703,1.029424960384667
2.3438719359679836,1.0246006645944044
2.3575787893946973,1.0218148617058846
2.3712856428214106,1.0179297477413296
2.384992496248124,1.011669389394235
2.3986993496748372,1.006207158127811
2.4124062031015505,1.002983147716392
2.426113056528264,0.9980884150192066
2.439819909954977,0.9937475770870776
2.4535267633816904,0.9910333765948411
2.467233616808404,0.9887768035154834
2.4809404702351174,0.9853034938193777
2.4946473236618307,0.9841580083332709
2.508354177088544,0.9853717887433846
2.5220610305152573,0.9845187597557532
2.5357678839419706,0.9836852570945056
2.549474737368684,0.9852153261138307
2.5631815907953976,0.9874484097137929
2.576888444222111,0.9872732563441947
2.5905952976488242,0.9899050863576432
2.6043021510755375,0.991921848140925
2.618009004502251,0.9919411679752382
2.631715857928964,0.9942976314709155
2.6454227113556774,0.9971114964311274
2.659129564782391,0.9989625389157558
2.6728364182091044,0.9976708708719422
2.6865432716358177,0.9981084453400737
2.700250125062531,0.9991404087119127
2.7139569784892443,0.9976743455238631
2.7276638319159576,1.0007013884232288
2.741370685342671,1.000111081098691
2.755077538769384,1.002832598452059
2.768784392196098,1.0030655591064566
2.7824912456228112,1.0042766168044501
2.7961980990495245,1.0058515977368123
2.809904952476238,1.0066537436280862
2.823611805902951,1.0103643985910993
2.8373186593296644,1.011031903269174
2.8510255127563777,1.0145721093445352
2.8647323661830915,1.0170659991962578
2.8784392196098048,1.0182629335705353
2.892146073036518,1.0184688796060961
2.9058529264632313,1.0218477329831457
2.9195597798899446,1.0209668809966796
2.933266633316658,1.0239632305925648
2.9469734867433712,1.0244897191830982
2.960680340170085,1.020085809993658
2.9743871935967983,1.021170284656222
2.9880940470235116,1.0161312513445113
3.001800900450225,1.0120963874974467
3.015507753876938,1.0051782277579835
3.0292146073036514,1.0017417009346288
3.0429214607303647,0.9966946087364446
3.056628314157078,0.9891153367994667
3.0703351675837918,0.9826555674688865
3.084042021010505,0.9765821480129825
3.0977488744372184,0.9724813836038306
3.1114557278639317,0.9678575968026307
3.125162581290645,0.9625583323132832
3.1388694347173582,0.9605346276027448
3.1525762881440715,0.9571634721606421
3.1662831415707853,0.9585499730924882
3.1799899949974986,0.9595210989729548
3.193696848424212,0.9607416286651873
3.207403701850925,0.9656255290221643
3.2211105552776385,0.9735149202380432
3.2348174087043517,0.9784359151588237
3.248524262131065,0.985877305042073
3.262231115557779,0.9963042131030596
3.275937968984492,1.001938546284919
3.2896448224112054,1.011455183111855
3.3033516758379187,1.0198198286166267
3.317058529264632,1.0285161503447577
3.3307653826913453,1.0344477945459858
3.3444722361180586,1.0396719301062864
3.358179089544772,1.0438946630021981
3.3718859429714856,1.047274207417281
3.385592796398199,1.0477141587784946
3.399299649824912,1.046029479128825
3.4130065032516255,1.0424211361054243
3.4267133566783388,1.040203300218874
3.440420210105052,1.0333083945361794
3.4541270635317654,1.0265780787304772
3.467833916958479,1.0179825408452425
3.4815407703851924,1.0110472785840179
3.4952476238119057,0.9995156714593525
3.508954477238619,0.9894296544863179
3.5226613306653323,0.9819256067303475
3.5363681840920456,0.9721815092263564
3.550075037518759,0.9652974646593007
3.5637818909454726,0.9611937430160112
3.577488744372186,0.9568077574831383
3.591195597798899,0.9537904083474381
3.6049024512256125,0.9531686397252102
3.6186093046523258,0.9560378753737381
3.632316158079039,0.9578240819703028
3.6460230115057524,0.9626092445694594
3.659729864932466,0.9689346158847147
3.6734367183591794,0.9748538202929009
3.6871435717858927,0.9822350377142662
3.700850425212606,0.9919134533274938
3.7145572786393193,1.0005621491166699
3.7282641320660326,1.0099163798758877
3.741970985492746,1.016309413744135
3.755677838919459,1.0251696078461692
3.769384692346173,1.0319189854106119
3.783091545772886,1.0363376633777255
3.7967983991995995,1.0410412707263834
3.810505252626313,1.043540436716288
3.824212106053026,1.0429514741109633
3.8379189594797394,1.041770835033654
3.8516258129064527,1.0417056578975434
3.8653326663331664,1.0372758421539512
3.8790395197598797,1.0315073175619471
3.892746373186593,1.0262433158125261
3.9064532266133063,1.019387158362014
3.9201600800400196,1.0121926471160774
3.933866933466733,1.0048555709456841
3.947573786893446,0.9977623514504695
3.96128064032016,0.9923940482741351
3.974987493746873,0.9855774052529737
3.9886943471735865,0.9807762051091345
4.0024012006003,0.9761194886288488
4.016108054027013,0.974541423870819
4.029814907453726,0.9698530879450609
4.04352176088044,0.9712990611988406
4.057228614307153,0.9708399944869346
4.070935467733866,0.9700121710005167
4.08464232116058,0.9720538519469504
4.098349174587293,0.9758387981836368
4.112056028014007,0.9786539170480295
4.12576288144072,0.9812920510223798
4.139469734867434,0.9836530247616363
4.153176588294147,0.9907279084355085
4.16688344172086,0.9918579307424066
4.1805902951475735,0.9952388854919749
4.194297148574287,0.998986222033852
4.208004002001,1.0012307158796978
4.221710855427713,1.0026423971472072
4.235417708854427,1.0046203684241233
4.24912456228114,1.0047102372971553
4.262831415707853,1.0071784708359421
4.276538269134567,1.0079055482570547
4.29024512256128,1.008463053554021
4.303951975987993,1.0083958899682997
4.317658829414707,1.0086488318660907
4.331365682841421,1.0081115183576181
4.345072536268134,1.0089314037505352
4.358779389694847,1.0082129256613988
4.3724862431215605,1.0084384905244628
4.386193096548274,1.0115729983045172
4.399899949974987,1.0114457718089052
4.4136068034017,1.0123342531320685
4.427313656828414,1.0125489567857295
4.441020510255127,1.0131298720193183
4.45472736368184,1.013640656296838
4.468434217108554,1.015701686609571
4.482141070535267,1.0139800706086928
4.49584792396198,1.0119792684484668
4.5095547773886935,1.0131316407296391
4.523261630815408,1.0086005132825915
4.536968484242121,1.0082385179482152
4.550675337668834,1.003531410918727
4.5643821910955475,1.0002952529034557
4.578089044522261,0.9975672781010521
4.591795897948974,0.9941738208980782
4.605502751375687,0.9869814803292752
4.619209604802401,0.9856846182801886
4.632916458229114,0.9814563912549716
4.646623311655827,0.9775626857946611
4.660330165082541,0.9756154941479973
4.674037018509254,0.974473430008953
4.687743871935967,0.9723047204490595
4.7014507253626805,0.972867788477918
4.715157578789395,0.9737590649371314
4.728864432216108,0.9752752050222839
4.742571285642821,0.9806636365060513
4.756278139069535,0.983548734454825
4.769984992496248,0.990346943584197
4.783691845922961,0.9966144911732685
4.7973986993496744,1.0029690064530252
4.811105552776388,1.0095625085371505
4.824812406203101,1.0165291427383312
4.838519259629814,1.02455554020173
4.852226113056528,1.028632081175132
4.865932966483241,1.0344611987763779
4.879639819909954,1.0386969444160359
4.8933466733366675,1.0400639022276434
4.907053526763381,1.043562443145531
4.920760380190095,1.0423545278760724
4.934467233616808,1.0404213441787746
4.948174087043522,1.0374482918230534
4.961880940470235,1.0313380163242847
4.975587793896948,1.0265893068848861
4.9892946473236615,1.0185842185029612
5.003001500750375,1.0093409095589005
5.016708354177088,1.001491505334627
5.030415207603801,0.9911986597322057
5.044122061030515,0.9835333798825692
5.057828914457228,0.9732333737824843
5.071535767883941,0.965914115948007
5.0852426213106545,0.9599282457493812
5.098949474737368,0.9522331323638508
5.112656328164081,0.9503108555197638
5.126363181590795,0.9479453553139494
5.140070035017509,0.9480930530798107
5.153776888444222,0.948051662601541
5.167483741870935,0.9528204258192664
5.1811905952976485,0.9565935130081047
5.194897448724362,0.9628357688302439
5.208604302151075,0.9712506576339986
5.222311155577788,0.9808956856392002
5.236018009004502,0.9911872936754995
5.249724862431215,1.0007309047434443
5.263431715857928,1.0092115450982535
5.2771385692846415,1.0193582051222627
5.290845422711355,1.0253488292007364
5.304552276138068,1.0337994714910705
5.318259129564782,1.0415035084751487
5.331965982991496,1.0430437689167167
5.345672836418209,1.0445798886057298
5.359379689844922,1.046755233137937
5.3730865432716355,1.0459838418937588
5.386793396698349,1.0439939019452145
5.400500250125062,1.0391283950470316
5.414207103551775,1.033576428586963
5.427913956978489,1.0273540914181714
5.441620810405202,1.0199079939324684
5.455327663831915,1.01302129053321
5.4690345172586285,1.004958342108353
5.482741370685342,0.9962596116133646
5.496448224112055,0.9893730861180907
5.510155077538768,0.982317559953628
5.523861930965483,0.9779397791500467
5.537568784392196,0.9710239281490338
5.551275637818909,0.9683961721122807
5.5649824912456225,0.9670646917170259
5.578689344672336,0.9669413769977295
5.592396198099049,0.9674612296752398
5.606103051525762,0.9687998563996785
5.619809904952476,0.9730472526290709
5.633516758379189,0.9755551583508579
5.647223611805902,0.9808326097373546
5.660930465232616,0.9849909811083354
5.674637318659329,0.990630987950176
5.688344172086042,0.9952211207528696
5.7020510255127554,1.0003787672032163
5.71575787893947,1.0068687585445328
5.729464732366183,1.0099131111818331
5.743171585792896,1.0151076994352526
5.7568784392196095,1.0161490503087938
5.770585292646323,1.019498979175257
5.784292146073036,1.0178548722301262
5.797998999499749,1.0199128045014587
5.811705852926463,1.0197657820121782
5.825412706353176,1.0200031050948468
5.839119559779889,1.0174006798799176
5.852826413206603,1.0162413575143396
5.866533266633316,1.0133280169859944
5.880240120060029,1.0134657151167876
5.8939469734867425,1.0101025800955539
5.907653826913456,1.0072429794985422
5.92136068034017,1.005715561322472
5.935067533766883,1.0039286923254207
5.9487743871935965,1.0034373092548186
5.96248124062031,1.0021099358728907
5.976188094047023,0.9985789758012865
5.989894947473736,0.9998075889000263
6.00360180090045,0.9986177697646768
6.017308654327163,0.9963381325907722
6.031015507753876,0.9973293831444764
6.04472236118059,0.9969715850489949
6.058429214607303,0.9949520345597191
6.072136068034016,0.9929182065761246
6.0858429214607295,0.9920079170767303
6.099549774887443,0.9905604342232932
6.113256628314156,0.9887290312811078
6.12696348174087,0.9863388102939982
6.1406703351675835,0.9843447331111318
6.154377188594297,0.9837661350978316
6.16808404202101,0.982040299222788
6.181790895447723,0.9775026485345907
6.195497748874437,0.9776783690357429
6.20920460230115,0.9782625071373896
6.222911455727863,0.9777640392694681
6.236618309154577,0.9774880464370651
6.25032516258129,0.9798778225062762
6.264032016008003,0.9800060818157506
6.2777388694347165,0.982331037616538
6.29144572286143,0.9883304772304307
6.305152576288143,0.9949672590402975
6.318859429714857,0.998156127465247
6.3325662831415706,1.004071321812934
6.346273136568284,1.0123231458228596
6.359979989994997,1.0155122514349022
6.37368684342171,1.0216299820515862
6.387393696848424,1.0277746404682109
6.401100550275137,1.0318995294441382
6.41480740370185,1.036642655831241
6.428514257128564,1.0386543549840683
6.442221110555277,1.0395339120368507
6.45592796398199,1.0386686250566066
6.4696348174087035,1.0378890391989983
6.483341670835417,1.0356282655345028
6.49704852426213,1.0301265221158
6.510755377688843,1.0249269387054596
6.524462231115558,1.0172070954844985
6.538169084542271,1.01009587561083
6.551875937968984,1.0028684768332146
6.5655827913956974,0.9951547251912781
6.579289644822411,0.9864549888474422
6.592996498249124,0.978808156110931
6.606703351675837,0.9726165955619155
6.620410205102551,0.9650483193606276
6.634117058529264,0.9603093857689459
6.647823911955977,0.9548580215795875
6.6615307653826905,0.9546277615606218
6.675237618809404,0.95564096784527
6.688944472236117,0.955953725730874
6.70265132566283,0.9600346318683113
6.716358179089544,0.9647560275585666
6.730065032516258,0.9710951725254146
6.743771885942971,0.9801489104430813
6.7574787393696845,0.9873187670564374
6.771185592796398,0.9961245761689546
6.784892446223111,1.0073551832955974
6.798599299649824,1.0152999846564201
6.812306153076538,1.0236744522506376
6.826013006503251,1.030548373856331
6.839719859929964,1.0369888989020684
6.8534267133566775,1.0425977383033433
6.867133566783391,1.0561924502010642
6.880840420210104,1.046329940253437
6.894547273636817,1.0468773170095544
6.908254127063531,1.0453165828487212
6.921960980490245,1.0421306305652853
6.935667833916958,1.0360731465076398
6.9493746873436715,1.0307880032923942
6.963081540770385,1.022216589885902
6.976788394197098,1.0130349688942435
6.990495247623811,1.005741784001032
7.004202101050525,0.9971372465508197
7.017908954477238,0.9860885714826302
7.031615807903951,0.9794678892437448
7.0453226613306645,0.9718077616690283
7.059029514757378,0.9647260766339878
7.072736368184091,0.9591669014069021
7.086443221610804,0.9578029283533116
7.100150075037518,0.9556718188295599
7.113856928464231,0.9521562389458968
7.127563781890945,0.9559517098711536
7.1412706353176585,0.9573106257252516
7.154977488744372,0.9626212613012377
7.168684342171085,0.966553871479371
7.182391195597798,0.9741554793735107
7.196098049024512,0.981777116207731
7.209804902451225,0.989132288155068
7.223511755877938,0.9957139011261881
7.2372186093046516,1.0013120652583827
7.250925462731365,1.0096984396803268
7.264632316158078,1.0157499974991275
7.278339169584791,1.0198493889387936
7.292046023011505,1.023355316232954
7.305752876438218,1.0262986192388015
7.319459729864932,1.0295160140840203
7.3331665832916455,1.0307047223798642
7.346873436718359,1.030257395884258
