time,flux
0.0,1.0274328629285392
0.013706853426713355,1.0314410540803225
0.02741370685342671,1.0395059954683816
0.041120560280140064,1.044686890857605
0.05482741370685342,1.0485088103647286
0.06853426713356678,1.051591655184998
0.08224112056028013,1.0515611392754374
0.09594797398699349,1.048270504243825
0.10965482741370684,1.0478186723661382
0.1233616808404202,1.0427143119414022
0.13706853426713356,1.0376678945365727
0.1507753876938469,1.0320370710212103
0.16448224112056026,1.0239164462551493
0.1781890945472736,1.0147367591472016
0.19189594797398699,1.0089110359718971
0.20560280140070034,1.002004672202938
0.21930965482741369,0.9944082118153754
0.23301650825412704,0.9858923065828781
0.2467233616808404,0.9809179360003321
0.26043021510755376,0.9758855980043841
0.2741370685342671,0.974414805224444
0.28784392196098046,0.9739432121680658
0.3015507753876938,0.9736994361075678
0.31525762881440716,0.9745264865507803
0.3289644822411205,0.9751028376110523
0.34267133566783387,0.97966323216466
0.3563781890945472,0.9846211235109731
0.3700850425212606,0.9895187511428976
0.38379189594797397,0.9926746286617969
0.3974987493746873,0.9956822695957119
0.41120560280140067,1.0002361988171673
0.424912456228114,1.0014007244491547
0.43861930965482737,1.0023610172546136
0.4523261630815407,1.0027826283095478
0.46603301650825407,1.0002542758274648
0.4797398699349674,0.9956095963916272
0.4934467233616808,0.9937288091172397
0.5071535767883941,0.9893946405796276
0.5208604302151075,0.9815723624210734
0.5345672836418208,0.9766664335108438
0.5482741370685342,0.9687517295928345
0.5619809904952475,0.9631836137880464
0.5756878439219609,0.9562851807536711
0.5893946973486743,0.9523672440776367
0.6031015507753876,0.9485612993049823
0.616808404202101,0.947112854483246
0.6305152576288143,0.9470412752092766
0.6442221110555277,0.9465377450774696
0.657928964482241,0.9511207160320795
0.6716358179089544,0.9517694161957626
0.6853426713356677,0.9593734203416591
0.6990495247623811,0.9665470753430511
0.7127563781890944,0.9759754196911473
0.7264632316158078,0.9813594484057502
0.7401700850425212,0.9900121836735035
0.7538769384692345,0.9971955036682564
0.7675837918959479,1.0016185216196174
0.7812906453226612,1.009995071890249
0.7949974987493746,1.0133079121919362
0.8087043521760879,1.0167894120497099
0.8224112056028013,1.019198168125632
0.8361180590295146,1.0211306385346792
0.849824912456228,1.0204413880314138
0.8635317658829413,1.016606416436221
0.8772386193096547,1.0157865078520367
0.8909454727363681,1.011879431053556
0.9046523261630814,1.0064374415165778
0.9183591795897948,1.0020863933269977
0.9320660330165081,0.9999096271904917
0.9457728864432215,0.9928392004394537
0.9594797398699348,0.9923869569469508
0.9731865932966483,0.9942715356953976
0.9868934467233615,0.9931215920349643
1.000600300150075,0.9943092226379189
1.0143071535767882,0.9943968169822059
1.0280140070035018,1.0011880897646386
1.041720860430215,1.0049172165298252
1.0554277138569284,1.0099277253638004
1.0691345672836416,1.0186802446850192
1.0828414207103552,1.02324240413237
1.0965482741370685,1.0332431718227357
1.1102551275637818,1.0379502224100372
1.123961980990495,1.0443017910323067
1.1376688344172086,1.0494713047582174
1.1513756878439219,1.053723734152884
1.1650825412706352,1.0553075352867878
1.1787893946973487,1.055453906854864
1.192496248124062,1.0555145643502815
1.2062031015507753,1.0525997004747996
1.2199099549774886,1.046043577256645
1.233616808404202,1.0400657880320765
1.2473236618309154,1.033334382853614
1.2610305152576287,1.0277580930909025
1.274737368684342,1.0189537432195541
1.2884442221110555,1.0116492978826617
1.3021510755377688,1.0047660768488864
1.315857928964482,0.9988842488213976
1.3295647823911956,0.9920123349984935
1.3432716358179089,0.9893810964996004
1.3569784892446222,0.9873186522045649
1.3706853426713355,0.985489066666584
1.384392196098049,0.9854145647667083
1.3980990495247623,0.9890732704167879
1.4118059029514756,0.9882604201773236
1.4255127563781889,0.9931703817322095
1.4392196098049024,0.9946753974451504
1.4529264632316157,1.0014685351088977
1.466633316658329,1.0049756728912582
1.4803401700850425,1.0105407701847582
1.4940470235117558,1.0125235065234917
1.507753876938469,1.0134426376774315
1.5214607303651824,1.0136868216041146
1.5351675837918959,1.0144881200216498
1.5488744372186092,1.0130645765720399
1.5625812906453225,1.0084337144152482
1.5762881440720358,1.002495686522862
1.5899949974987493,0.9965183289636779
1.6037018509254626,0.9893444228512873
1.6174087043521759,0.981210691361496
1.6311155577788894,0.9741189328138199
1.6448224112056027,0.9699489809369041
1.658529264632316,0.9606132129812148
1.6722361180590293,0.9553391950329585
1.6859429714857428,0.949913041173865
1.699649824912456,0.9454681719680351
1.7133566783391694,0.9441424303520244
1.7270635317658827,0.9431023069586869
1.7407703851925962,0.9462786470631195
1.7544772386193095,0.9483206052554852
1.7681840920460228,0.9520161447104384
1.7818909454727363,0.959230923761722
1.7955977988994496,0.9667351392484665
1.8093046523261629,0.9730273145358606
1.8230115057528762,0.9797023558378939
1.8367183591795897,0.987199716366424
1.850425212606303,0.9947431253308947
1.8641320660330163,0.9985417679962879
1.8778389194597296,1.0039047898670237
1.891545772886443,1.0047756644378554
1.9052526263131564,1.0068802511536445
1.9189594797398697,1.0094885971295506
1.9326663331665832,1.0067103137920514
1.9463731865932965,1.0084107851014514
1.9600800400200098,1.0035150526058767
1.973786893446723,0.9995194914716972
1.9874937468734366,0.9939020202599632
2.00120060030015,0.9863684180535827
2.014907453726863,0.9876424165314361
2.0286143071535765,0.9815203205060178
2.04232116058029,0.978456018374753
2.0560280140070035,0.9776029349364525
2.069734867433717,0.9796851009139462
2.08344172086043,0.9791313425351947
2.0971485742871434,0.9850996059698478
2.1108554277138567,0.9869937361956961
2.12456228114057,0.9949095550173218
2.1382691345672833,0.998947775564202
2.1519759879939966,1.0060919816718634
2.1656828414207103,1.0167462441873671
2.1793896948474236,1.0262250349073445
2.193096548274137,1.0295918400297126
2.20680340170085,1.0366369881247115
2.2205102551275635,1.0454450614176236
2.234217108554277,1.0503478192115
2.24792396198099,1.0513735810420555
2.261630815407704,1.0536308740196705
2.275337668834417,1.054880902535753
2.2890445222611304,1.0531469240015245
2.3027513756878437,1.0515701616533735
2.316458229114557,1.0446530806708352
2.3301650825412703,1.0405560131390748
2.3438719359679836,1.0315964777825506
2.3575787893946973,1.0276796887213198
2.3712856428214106,1.0196268364092553
2.384992496248124,1.0119907444615277
2.3986993496748372,1.0085808508671283
2.4124062031015505,1.0007798587710435
2.426113056528264,1.0002967301781134
2.439819909954977,0.9969001846417278
2.4535267633816904,0.9979509062077295
2.467233616808404,0.9965559383523142
2.4809404702351174,0.9973831335353418
2.4946473236618307,0.9997121193314076
2.508354177088544,1.0051169866725063
2.5220610305152573,1.011143239714103
2.5357678839419706,1.0128867740014602
2.549474737368684,1.0173572844299668
2.5631815907953976,1.0237887713746192
2.576888444222111,1.027874208552039
2.5905952976488242,1.0256894481930385
2.6043021510755375,1.0269555240840278
2.618009004502251,1.02760800951391
2.631715857928964,1.0242058414513053
2.6454227113556774,1.02336161690742
2.659129564782391,1.017736432905561
2.6728364182091044,1.0083603858369374
2.6865432716358177,1.003627911563111
2.700250125062531,0.9947373710839383
2.7139569784892443,0.9867046514827031
2.7276638319159576,0.9774445111428998
2.741370685342671,0.9693951791238766
2.755077538769384,0.9611874217193214
2.768784392196098,0.9569399316383623
2.7824912456228112,0.953998683847923
2.7961980990495245,0.9485062440471684
2.809904952476238,0.9503180786556271
2.823611805902951,0.9495380098503217
2.8373186593296644,0.9500815402092463
2.8510255127563777,0.9544625156017811
2.8647323661830915,0.9596519017290384
2.8784392196098048,0.9662669983871138
2.892146073036518,0.9716381920540061
2.9058529264632313,0.9765204282981627
2.9195597798899446,0.9838424889262432
2.933266633316658,0.988980585604175
2.9469734867433712,0.9937096562982417
2.960680340170085,0.9983239328153597
2.9743871935967983,0.9996999439820704
2.9880940470235116,1.0009442725922308
3.001800900450225,1.000564941973495
3.015507753876938,0.9996246314278151
3.0292146073036514,0.9956880155818455
3.0429214607303647,0.9918462588391607
3.056628314157078,0.9875871917365826
3.0703351675837918,0.9838376751045861
3.084042021010505,0.977959096166629
3.0977488744372184,0.9713719503378885
3.1114557278639317,0.9705801436288048
3.125162581290645,0.9661963510716888
3.1388694347173582,0.9655065522027197
3.1525762881440715,0.966203566028941
3.1662831415707853,0.9655240465232275
3.1799899949974986,0.966980883687031
3.193696848424212,0.9741538637589893
3.207403701850925,0.9785090625815123
3.2211105552776385,0.9875710217219376
3.2348174087043517,0.9935056038218907
3.248524262131065,1.0027508483319736
3.262231115557779,1.0112507432807736
3.275937968984492,1.0168378407899552
3.2896448224112054,1.0256023028567067
3.3033516758379187,1.0338764145206043
3.317058529264632,1.0415266406029444
3.3307653826913453,1.0429180320247506
3.3444722361180586,1.046007614092962
3.358179089544772,1.0472648497764139
3.3718859429714856,1.046379112133758
3.385592796398199,1.044343947866028
3.399299649824912,1.0400313373322947
3.4130065032516255,1.035396220796133
3.4267133566783388,1.031631157196969
3.440420210105052,1.0262276828847927
3.4541270635317654,1.019611596696358
3.467833916958479,1.0156480387247508
3.4815407703851924,1.0089199235950765
3.4952476238119057,1.005089182621865
3.508954477238619,1.0021074258333778
3.5226613306653323,1.0006007914117645
3.5363681840920456,0.9983443485298713
3.550075037518759,1.0011762737463412
3.5637818909454726,1.0051254216652492
3.577488744372186,1.008535821475632
3.591195597798899,1.0125430470200372
3.6049024512256125,1.018022360093052
3.6186093046523258,1.0249585022478112
3.632316158079039,1.0282880901340072
3.6460230115057524,1.0331839816853663
3.659729864932466,1.037498734694581
3.6734367183591794,1.0407671737275455
3.6871435717858927,1.0425893698944284
3.700850425212606,1.0411802738075833
3.7145572786393193,1.0405557687618137
3.7282641320660326,1.0355378114752156
3.741970985492746,1.031468644375961
3.755677838919459,1.0236523044574528
3.769384692346173,1.0175248960718712
3.783091545772886,1.0090193506343845
3.7967983991995995,1.0004093772799876
3.810505252626313,0.9920655237786958
3.824212106053026,0.9828170023146305
3.8379189594797394,0.9766181901362934
3.8516258129064527,0.969238004341323
3.8653326663331664,0.9661618985317852
3.8790395197598797,0.9607668503003137
3.892746373186593,0.9581607730074417
3.9064532266133063,0.9573679145339938
3.9201600800400196,0.9576464334267596
3.933866933466733,0.9613875769048171
3.947573786893446,0.9661288636704792
3.96128064032016,0.9695541540204656
3.974987493746873,0.9736613499442234
3.9886943471735865,0.980401212595139
4.0024012006003,0.9848992754251842
4.016108054027013,0.989119627191179
4.029814907453726,0.9936508663289784
4.04352176088044,0.9967907086680533
4.057228614307153,0.9969424340622578
4.070935467733866,0.9986901641394381
4.08464232116058,0.9979361690385373
4.098349174587293,0.9967524242380458
4.112056028014007,0.9918297004068675
4.12576288144072,0.9860855798565478
4.139469734867434,0.9826559607762995
4.153176588294147,0.9760392348263877
4.16688344172086,0.9722849422602525
4.1805902951475735,0.9653321023962607
4.194297148574287,0.9627810812722913
4.208004002001,0.9566548760755196
4.221710855427713,0.953379901932165
4.235417708854427,0.9537728484305642
4.24912456228114,0.9548007951961032
4.262831415707853,0.9546003196547638
4.276538269134567,0.961132491218239
4.29024512256128,0.9644665005642855
4.303951975987993,0.9722344596314161
4.317658829414707,0.9807984503590504
4.331365682841421,0.9849716398638758
4.345072536268134,0.9965446166839338
4.358779389694847,1.0071491149244611
4.3724862431215605,1.0137541644959742
4.386193096548274,1.019401716499839
4.399899949974987,1.02585295280437
4.4136068034017,1.031272754202882
4.427313656828414,1.0345466347264427
4.441020510255127,1.0364692362082353
4.45472736368184,1.0378857809846909
4.468434217108554,1.0337066864244306
4.482141070535267,1.0320961655724592
4.49584792396198,1.0267606868714378
4.5095547773886935,1.0252171261673348
4.523261630815408,1.0190674796591943
4.536968484242121,1.0135040950349423
4.550675337668834,1.009175764098843
4.5643821910955475,1.0073035473497705
4.578089044522261,1.001434285972617
4.591795897948974,1.0031050196097855
4.605502751375687,0.997592577570389
4.619209604802401,1.0000313961850755
4.632916458229114,1.0033315299279417
4.646623311655827,1.0071361314637761
4.660330165082541,1.010365314773169
4.674037018509254,1.014986314425708
4.687743871935967,1.019567314642293
4.7014507253626805,1.0278762297521085
4.715157578789395,1.03398577388865
4.728864432216108,1.04085321001918
4.742571285642821,1.045382955546429
4.756278139069535,1.0480277444304462
4.769984992496248,1.0509641144119168
4.783691845922961,1.0531265134731795
4.7973986993496744,1.0521655096987355
4.811105552776388,1.0465277480700348
4.824812406203101,1.044419019187559
4.838519259629814,1.0405385725010272
4.852226113056528,1.0319345323478355
4.865932966483241,1.0244103262929463
4.879639819909954,1.0149168618663682
4.8933466733366675,1.0063686040074045
4.907053526763381,0.9977264796802257
4.920760380190095,0.9903481652291451
4.934467233616808,0.9843565942893123
4.948174087043522,0.977223875128371
4.961880940470235,0.9747007703483043
4.975587793896948,0.9706636771929933
4.9892946473236615,0.9711357655600944
5.003001500750375,0.9695335044264924
5.016708354177088,0.9730335504909959
5.030415207603801,0.9757752453385364
5.044122061030515,0.97889433823283
5.057828914457228,0.9834194299830087
5.071535767883941,0.9879923798137616
5.0852426213106545,0.9940392740415991
5.098949474737368,0.9959106779087249
5.112656328164081,1.0022709379148567
5.126363181590795,1.0044999690287917
5.140070035017509,1.0030228156686734
5.153776888444222,1.0036524998950875
5.167483741870935,1.0024670074483468
5.1811905952976485,0.9993557726008655
5.194897448724362,0.9939232645713486
5.208604302151075,0.9889140821074207
5.222311155577788,0.9828643107096369
5.236018009004502,0.9751736852249632
5.249724862431215,0.9689642913398544
5.263431715857928,0.9621777532027467
5.2771385692846415,0.9548336912624773
5.290845422711355,0.9530738978068619
5.304552276138068,0.9493847101315404
5.318259129564782,0.9469305320783254
5.331965982991496,0.9467795042607081
5.345672836418209,0.9468702435694717
5.359379689844922,0.9494357260679057
5.3730865432716355,0.9516308956057205
5.386793396698349,0.9584469473866083
5.400500250125062,0.9647228806317556
5.414207103551775,0.9739598571219822
5.427913956978489,0.9822065557796122
5.441620810405202,0.9893335532404461
5.455327663831915,0.9997056918480947
5.4690345172586285,1.0078457139856418
5.482741370685342,1.0131266614413703
5.496448224112055,1.0159309789147357
5.510155077538768,1.0205746892488803
5.523861930965483,1.0244030204728491
5.537568784392196,1.0243055313718206
5.551275637818909,1.0223323455747355
5.5649824912456225,1.0202657820908663
5.578689344672336,1.0157848308751223
5.592396198099049,1.0135315806919796
5.606103051525762,1.0075499749205523
5.619809904952476,1.0028272740196873
5.633516758379189,0.9999312848371389
5.647223611805902,0.9953473564532473
5.660930465232616,0.9929861812821074
5.674637318659329,0.9909269941387013
5.688344172086042,0.9916409977425275
5.7020510255127554,0.9911026564084723
5.71575787893947,0.996020614848609
5.729464732366183,0.9988983132670133
5.743171585792896,1.002052629580113
5.7568784392196095,1.0111314079868017
5.770585292646323,1.0165315645452275
5.784292146073036,1.0258993482280803
5.797998999499749,1.034779114535532
5.811705852926463,1.0380183300475399
5.825412706353176,1.0437077138950352
5.839119559779889,1.050014725703376
5.852826413206603,1.0540864173059405
5.866533266633316,1.057317569139484
5.880240120060029,1.0549714306303402
5.8939469734867425,1.056976806853453
5.907653826913456,1.050633574066297
5.92136068034017,1.0459362084167405
5.935067533766883,1.0418888602373484
5.9487743871935965,1.0350725708504287
5.96248124062031,1.0264614730725086
5.976188094047023,1.0172412046350634
5.989894947473736,1.010284732261895
6.00360180090045,1.0053849883284158
6.017308654327163,0.995214221810298
6.031015507753876,0.9929802618169924
6.04472236118059,0.9861881490615425
6.058429214607303,0.9838125169548922
6.072136068034016,0.9839307886242491
6.0858429214607295,0.9823691096589291
6.099549774887443,0.9848338962308304
6.113256628314156,0.9881849811097664
6.12696348174087,0.9929552808555704
6.1406703351675835,0.9971114867266853
6.154377188594297,1.0003707451418524
6.16808404202101,1.0053330456436398
6.181790895447723,1.0073815079630977
6.195497748874437,1.01211123780391
6.20920460230115,1.0154841795522147
6.222911455727863,1.0161824093168805
6.236618309154577,1.0146143655073514
6.25032516258129,1.0128772555143484
6.264032016008003,1.0080758746198502
6.2777388694347165,1.0051717674016505
6.29144572286143,0.9951304753893095
6.305152576288143,0.9907623514534641
6.318859429714857,0.9831133044595745
6.3325662831415706,0.9734001154886646
6.346273136568284,0.9664637004184695
6.359979989994997,0.9582813293808867
6.37368684342171,0.954451259607816
6.387393696848424,0.9489658005584303
6.401100550275137,0.9461140486693189
6.41480740370185,0.9426084293595259
6.428514257128564,0.943555601259687
6.442221110555277,0.9449513534642341
6.45592796398199,0.9496933339401105
6.4696348174087035,0.9528128109658578
6.483341670835417,0.9595597720218224
6.49704852426213,0.9665334820582506
6.510755377688843,0.972713737905451
6.524462231115558,0.9813214026737862
6.538169084542271,0.9875586600358166
6.551875937968984,0.9936470368264091
6.5655827913956974,1.0005212390012772
6.579289644822411,1.0068998443687103
6.592996498249124,1.0091994998246565
6.606703351675837,1.009409201909496
6.620410205102551,1.0117376171731072
6.634117058529264,1.0104638771259935
6.647823911955977,1.0104515181683598
6.6615307653826905,1.0029575937668638
6.675237618809404,1.0013792788023204
6.688944472236117,0.9928466331287048
6.70265132566283,0.9904636968423156
6.716358179089544,0.9856405245369103
6.730065032516258,0.9830876562282781
6.743771885942971,0.9814615804627802
6.7574787393696845,0.9782030264207974
6.771185592796398,0.9788347251455816
6.784892446223111,0.9806249390172901
6.798599299649824,0.983925269833504
6.812306153076538,0.9882682029388639
6.826013006503251,0.9934930730948717
6.839719859929964,0.9998005747709948
6.8534267133566775,1.0062605513837084
6.867133566783391,1.0183132035230384
6.880840420210104,1.0243298498678597
6.894547273636817,1.0332060226704392
6.908254127063531,1.0395726152097269
6.921960980490245,1.0462919255400764
6.935667833916958,1.0497110699572445
6.9493746873436715,1.0524217349956542
6.963081540770385,1.056288130922227
6.976788394197098,1.0555269276127919
6.990495247623811,1.0518363466599951
7.004202101050525,1.050402891645091
7.017908954477238,1.0471209968682316
7.031615807903951,1.039619027371009
7.0453226613306645,1.035035722406967
7.059029514757378,1.0250821421588854
7.072736368184091,1.0190045362828648
7.086443221610804,1.013620185017481
7.100150075037518,1.008004463325008
7.113856928464231,1.0003872990711413
7.127563781890945,0.9978361151138069
7.1412706353176585,0.9941121744994492
7.154977488744372,0.9938836020504536
7.168684342171085,0.9944880659465879
7.182391195597798,0.9958247976086004
7.196098049024512,0.9988518602899885
7.209804902451225,1.002757777199049
7.223511755877938,1.0087440646217714
7.2372186093046516,1.0137939729077738
7.250925462731365,1.0178586033720822
7.264632316158078,1.0207789668981904
7.278339169584791,1.025082713992682
7.292046023011505,1.0253933394872419
7.305752876438218,1.028416758801619
7.319459729864932,1.027038283013189
7.3331665832916455,1.025552644009461
7.346873436718359,1.0206004262476063
