time,flux
0.0,0.9706166775098748
0.013706853426713355,0.9657180218803917
0.02741370685342671,0.9590697606414432
0.041120560280140064,0.9539116427373636
0.05482741370685342,0.9539124075590778
0.06853426713356678,0.9529831731049903
0.08224112056028013,0.9581058696937468
0.09594797398699349,0.9618344260640173
0.10965482741370684,0.968255236234364
0.1233616808404202,0.9752794372948488
0.13706853426713356,0.9832298806956135
0.1507753876938469,0.9927841454503059
0.16448224112056026,1.0023888422606095
0.1781890945472736,1.010470364069146
0.19189594797398699,1.0187023631726078
0.20560280140070034,1.0297115750565642
0.21930965482741369,1.034666672429302
0.23301650825412704,1.0415457537622757
0.2467233616808404,1.0433956812689835
0.26043021510755376,1.0459267189804722
0.2741370685342671,1.0462862205894021
0.28784392196098046,1.0435091583470566
0.3015507753876938,1.0388100174254165
0.31525762881440716,1.033108271016301
0.3289644822411205,1.0256604935248697
0.34267133566783387,1.0180842201320675
0.3563781890945472,1.0081215959349805
0.3700850425212606,0.9993184806037366
0.38379189594797397,0.9896871520246925
0.3974987493746873,0.9804056384091505
0.41120560280140067,0.9716388682908563
0.424912456228114,0.9651250636734958
0.43861930965482737,0.9590209292651793
0.4523261630815407,0.9553462970974679
0.46603301650825407,0.9554724102069531
0.4797398699349674,0.956805783460889
0.4934467233616808,0.9566777593970377
0.5071535767883941,0.9619953725159736
0.5208604302151075,0.9678225083532132
0.5345672836418208,0.9743340053613998
0.5482741370685342,0.9834841836299174
0.5619809904952475,0.9918482759660807
0.5756878439219609,0.9982799507738878
0.5893946973486743,1.0084008925281536
0.6031015507753876,1.0186373649949994
0.616808404202101,1.0275056333082189
0.6305152576288143,1.0329718566677266
0.6442221110555277,1.0415931636331226
0.657928964482241,1.0443078990473074
0.6716358179089544,1.0432437513292496
0.6853426713356677,1.044298412221048
0.6990495247623811,1.041620448884897
0.7127563781890944,1.036489147192786
0.7264632316158078,1.0326108950797075
0.7401700850425212,1.027316586730892
0.7538769384692345,1.0174874703145185
0.7675837918959479,1.0089290091283216
0.7812906453226612,0.9991892918003851
0.7949974987493746,0.9906728912230431
0.8087043521760879,0.9837590691486156
0.8224112056028013,0.9744669444489876
0.8361180590295146,0.9674281199450842
0.849824912456228,0.961282837585219
0.8635317658829413,0.9604144403886511
0.8772386193096547,0.9557731877774556
0.8909454727363681,0.9582764720882224
0.9046523261630814,0.95834587328803
0.9183591795897948,0.9641356714531536
0.9320660330165081,0.9693994712671851
0.9457728864432215,0.9739469521642719
0.9594797398699348,0.9823933031771758
0.9731865932966483,0.9904454529771585
0.9868934467233615,0.9992238928030728
1.000600300150075,1.0078767959940227
1.0143071535767882,1.0166117643251456
1.0280140070035018,1.024797043504526
1.041720860430215,1.0296707576525101
1.0554277138569284,1.0361989107200147
1.0691345672836416,1.038152939731059
1.0828414207103552,1.0410136467279165
1.0965482741370685,1.0392907348588347
1.1102551275637818,1.0363482982195353
1.123961980990495,1.0347175142827407
1.1376688344172086,1.0292356274425087
1.1513756878439219,1.0235416205953072
1.1650825412706352,1.0169793069606978
1.1787893946973487,1.0075770749863728
1.192496248124062,1.0000470081841446
1.2062031015507753,0.9922585843923916
1.2199099549774886,0.9862732056378289
1.233616808404202,0.9755349519918423
1.2473236618309154,0.9710670523397972
1.2610305152576287,0.9668141030893476
1.274737368684342,0.9619912718899737
1.2884442221110555,0.9608312250632681
1.3021510755377688,0.9623433081135857
1.315857928964482,0.9638692732602943
1.3295647823911956,0.9670682829797881
1.3432716358179089,0.972901109239317
1.3569784892446222,0.9781373708122283
1.3706853426713355,0.984676935676618
1.384392196098049,0.9910923093951884
1.3980990495247623,0.9988233717450761
1.4118059029514756,1.00539526386273
1.4255127563781889,1.0145231117458682
1.4392196098049024,1.0216644832581911
1.4529264632316157,1.0253789999792717
1.466633316658329,1.029873381946002
1.4803401700850425,1.0337454787908495
1.4940470235117558,1.0357034843669364
1.507753876938469,1.0351923009171264
1.5214607303651824,1.0364464253276395
1.5351675837918959,1.0309074235647464
1.5488744372186092,1.0272806722528312
1.5625812906453225,1.0213199071547518
1.5762881440720358,1.0152533482556236
1.5899949974987493,1.0089318869097177
1.6037018509254626,0.9988476416293479
1.6174087043521759,0.9945653504757891
1.6311155577788894,0.9880265623341751
1.6448224112056027,0.9804754519926578
1.658529264632316,0.9740970399078555
1.6722361180590293,0.9705732825221299
1.6859429714857428,0.9665898582829588
1.699649824912456,0.9670326395925408
1.7133566783391694,0.9672914371936583
1.7270635317658827,0.9688860021592803
1.7407703851925962,0.9710623985055196
1.7544772386193095,0.974440004764706
1.7681840920460228,0.9793967560445486
1.7818909454727363,0.985954378579283
1.7955977988994496,0.9934144564189876
1.8093046523261629,0.9982447702644522
1.8230115057528762,1.0057831067438698
1.8367183591795897,1.0121164260671924
1.850425212606303,1.018524987012186
1.8641320660330163,1.023853430795457
1.8778389194597296,1.0267504028077696
1.891545772886443,1.0285827349591496
1.9052526263131564,1.031020114800571
1.9189594797398697,1.0279898793578337
1.9326663331665832,1.0288432732528552
1.9463731865932965,1.0282425926868903
1.9600800400200098,1.0235325131268547
1.973786893446723,1.018843000967423
1.9874937468734366,1.0142100946180415
2.00120060030015,1.0046843287106269
2.014907453726863,1.001814061546075
2.0286143071535765,0.9935030809572316
2.04232116058029,0.9880034025114378
2.0560280140070035,0.9822864127488455
2.069734867433717,0.9775698550270295
2.08344172086043,0.9755026460749012
2.0971485742871434,0.9726797739063929
2.1108554277138567,0.9720606346167794
2.12456228114057,0.9708437511146257
2.1382691345672833,0.9723670283937631
2.1519759879939966,0.9759719175884476
2.1656828414207103,0.9791685983479024
2.1793896948474236,0.9838174312135836
2.193096548274137,0.9881451941213459
2.20680340170085,0.9922871985540116
2.2205102551275635,0.9995826197944275
2.234217108554277,1.0043797873174087
2.24792396198099,1.0102653589915003
2.261630815407704,1.015004188743807
2.275337668834417,1.019510393789468
2.2890445222611304,1.0207718634785625
2.3027513756878437,1.0236993595996133
2.316458229114557,1.0236757156975624
2.3301650825412703,1.0256788662467837
2.3438719359679836,1.023037835680792
2.3575787893946973,1.020663277976023
2.3712856428214106,1.0183069163367666
2.384992496248124,1.0129353806904853
2.3986993496748372,1.010014877088521
2.4124062031015505,1.0042978889078582
2.426113056528264,1.0009816907928366
2.439819909954977,0.9944720163616275
2.4535267633816904,0.9902493004541988
2.467233616808404,0.9866099858649814
2.4809404702351174,0.9839313776325124
2.4946473236618307,0.9802094271138931
2.508354177088544,0.9805086934332599
2.5220610305152573,0.9779189525022716
2.5357678839419706,0.9778843941031998
2.549474737368684,0.9783102188824114
2.5631815907953976,0.9817115708627364
2.576888444222111,0.9849230366095845
2.5905952976488242,0.9879501061451487
2.6043021510755375,0.9945082508813599
2.618009004502251,0.9964515528380468
2.631715857928964,1.0009595351423999
2.6454227113556774,1.0065846103143807
2.659129564782391,1.009344680661554
2.6728364182091044,1.0111877245009198
2.6865432716358177,1.0140945952606273
2.700250125062531,1.0163583360196495
2.7139569784892443,1.0166661085804924
2.7276638319159576,1.0168447895683852
2.741370685342671,1.016737963019814
2.755077538769384,1.0155653678891596
2.768784392196098,1.014917335530602
2.7824912456228112,1.0110008022175367
2.7961980990495245,1.0100729806245787
2.809904952476238,1.004812586671307
2.823611805902951,1.0030315377321974
2.8373186593296644,0.9974622808770568
2.8510255127563777,0.994696281562828
2.8647323661830915,0.9932791399779052
2.8784392196098048,0.9906397927343996
2.892146073036518,0.9887393909485722
2.9058529264632313,0.9850292479017092
2.9195597798899446,0.9837379973477002
2.933266633316658,0.9864089431289881
2.9469734867433712,0.9875397822972589
2.960680340170085,0.9896133903504982
2.9743871935967983,0.9905162674259169
2.9880940470235116,0.9912235999249709
3.001800900450225,0.9948945921298905
3.015507753876938,0.9977726974188987
3.0292146073036514,0.9976580087267222
3.0429214607303647,1.0003810664796482
3.056628314157078,1.0049259206549939
3.0703351675837918,1.0074165282281382
3.084042021010505,1.0085037479615584
3.0977488744372184,1.0100894921121573
3.1114557278639317,1.0107374296408596
3.125162581290645,1.0118082609369903
3.1388694347173582,1.0105475058200903
3.1525762881440715,1.012560873572123
3.1662831415707853,1.007241931952072
3.1799899949974986,1.0093695419297322
3.193696848424212,1.005685972377044
3.207403701850925,1.0034799420024854
3.2211105552776385,0.9999202476302952
3.2348174087043517,0.9974145103352646
3.248524262131065,0.9946426867394015
3.262231115557779,0.9944227086970203
3.275937968984492,0.9928509828152107
3.2896448224112054,0.9920595050346148
3.3033516758379187,0.9927482856892775
3.317058529264632,0.9899044444369809
3.3307653826913453,0.9912287908842695
3.3444722361180586,0.990205581541461
3.358179089544772,0.9934492980449142
3.3718859429714856,0.9957194362744233
3.385592796398199,0.995130398431711
3.399299649824912,0.9977542105607533
3.4130065032516255,1.0000278216269027
3.4267133566783388,1.0013148304072668
3.440420210105052,1.0024619490326698
3.4541270635317654,1.0038428681227927
3.467833916958479,1.0063598167834842
3.4815407703851924,1.00465847506246
3.4952476238119057,1.005257446719642
3.508954477238619,1.0071110928104063
3.5226613306653323,1.0047250377586974
3.5363681840920456,1.0043498257700105
3.550075037518759,1.004670416111681
3.5637818909454726,1.0020913293970548
3.577488744372186,1.0036632313808462
3.591195597798899,1.0006673156593384
3.6049024512256125,0.9982631088239857
3.6186093046523258,0.9957260100009402
3.632316158079039,0.9942794412423244
3.6460230115057524,0.9946230687301312
3.659729864932466,0.9947117951153936
3.6734367183591794,0.9931695378239476
3.6871435717858927,0.9926687821101846
3.700850425212606,0.9934281444817097
3.7145572786393193,0.9953350645578346
3.7282641320660326,0.9950719458278755
3.741970985492746,0.9963158536538529
3.755677838919459,0.9972749493485019
3.769384692346173,1.0011738336574738
3.783091545772886,1.0011918716853943
3.7967983991995995,1.003995574128086
3.810505252626313,1.0050937445294792
3.824212106053026,1.0069317243451283
3.8379189594797394,1.0068052607304498
3.8516258129064527,1.0064954464472373
3.8653326663331664,1.0080910113237325
3.8790395197598797,1.004356641833334
3.892746373186593,1.0065556518161236
3.9064532266133063,1.0035255315660343
3.9201600800400196,1.0046630002870482
3.933866933466733,1.0028332731807486
3.947573786893446,0.9996170831552869
3.96128064032016,0.9996918436965332
3.974987493746873,0.9957652266150567
3.9886943471735865,0.9923169595859562
4.0024012006003,0.9914085545882894
4.016108054027013,0.9906599296421313
4.029814907453726,0.9895550365098957
4.04352176088044,0.9906889150523297
4.057228614307153,0.9903247314825218
4.070935467733866,0.9895182417972793
4.08464232116058,0.9926430354959439
4.098349174587293,0.9942473352309397
4.112056028014007,0.9989505205153151
4.12576288144072,0.9987516390228741
4.139469734867434,0.9999740437437715
4.153176588294147,1.0045181921242625
4.16688344172086,1.004495721911111
4.1805902951475735,1.0090666403824529
4.194297148574287,1.0103197193091784
4.208004002001,1.0108071741093299
4.221710855427713,1.0124887297122633
4.235417708854427,1.011581378762041
4.24912456228114,1.0128842407763217
4.262831415707853,1.0115997752997508
4.276538269134567,1.0102610015263358
4.29024512256128,1.0068253808080978
4.303951975987993,1.0050094563338337
4.317658829414707,1.004015037341958
4.331365682841421,1.000523755477909
4.345072536268134,0.9980530701798709
4.358779389694847,0.9942892904846948
4.3724862431215605,0.9916529753529545
4.386193096548274,0.988346463369995
4.399899949974987,0.9871972075743243
4.4136068034017,0.9861338214433879
4.427313656828414,0.9834556949880201
4.441020510255127,0.9841324319740172
4.45472736368184,0.9862363405156499
4.468434217108554,0.9862985979941042
4.482141070535267,0.98821562370487
4.49584792396198,0.9894248725605596
4.5095547773886935,0.9941931541030331
4.523261630815408,0.9963266127057826
4.536968484242121,1.0007064621802877
4.550675337668834,1.0053273121717274
4.5643821910955475,1.0088537975435174
4.578089044522261,1.011937937101559
4.591795897948974,1.0143403407151055
4.605502751375687,1.0167231938414738
4.619209604802401,1.0181346931173358
4.632916458229114,1.0205235224531974
4.646623311655827,1.019795500726969
4.660330165082541,1.0168563295744015
4.674037018509254,1.0149132167176185
4.687743871935967,1.0139791736089756
4.7014507253626805,1.0098653882956299
4.715157578789395,1.0057510434460148
4.728864432216108,1.0031719337864125
4.742571285642821,0.9965591125072103
4.756278139069535,0.9906097817125282
4.769984992496248,0.9916488190360114
4.783691845922961,0.9849040778360265
4.7973986993496744,0.9825338785697472
4.811105552776388,0.980105342800934
4.824812406203101,0.9785406673223538
4.838519259629814,0.9764983267870431
4.852226113056528,0.9786558578527512
4.865932966483241,0.980293105746686
4.879639819909954,0.9804345895871756
4.8933466733366675,0.9855576511426924
4.907053526763381,0.989151170683038
4.920760380190095,0.9929089111007098
4.934467233616808,0.9988667827140363
4.948174087043522,1.0034160890308848
4.961880940470235,1.0096930309502277
4.975587793896948,1.0132801384739023
4.9892946473236615,1.0171784386367273
5.003001500750375,1.0216389890117636
5.016708354177088,1.0227325242715777
5.030415207603801,1.0237794618792033
5.044122061030515,1.0255617439139515
5.057828914457228,1.0239964055004682
5.071535767883941,1.0241750686687219
5.0852426213106545,1.0216719638943168
5.098949474737368,1.0156789377576079
5.112656328164081,1.0119840800598738
5.126363181590795,1.006718060372841
5.140070035017509,1.0022145284322235
5.153776888444222,0.9961487889870736
5.167483741870935,0.9894721330451373
5.1811905952976485,0.9845692538072897
5.194897448724362,0.9793006440837129
5.208604302151075,0.9773506620640718
5.222311155577788,0.9740662393406394
5.236018009004502,0.9725395066675682
5.249724862431215,0.9714180432090015
5.263431715857928,0.970189899854579
5.2771385692846415,0.9725771635491376
5.290845422711355,0.9781446469470259
5.304552276138068,0.9811519544810959
5.318259129564782,0.9854316994980878
5.331965982991496,0.9915436929534422
5.345672836418209,0.9976462121286062
5.359379689844922,1.0067190379089654
5.3730865432716355,1.0121155806033977
5.386793396698349,1.016884867594642
5.400500250125062,1.0201341741003451
5.414207103551775,1.0262335539186755
5.427913956978489,1.0292818431857182
5.441620810405202,1.0318597170764154
5.455327663831915,1.0318453042861508
5.4690345172586285,1.031306278867687
5.482741370685342,1.0284403610448853
5.496448224112055,1.0251257263302167
5.510155077538768,1.020197472630229
5.523861930965483,1.0152765162828878
5.537568784392196,1.0074779849967932
5.551275637818909,1.0029399381892645
5.5649824912456225,0.99385654706207
5.578689344672336,0.9884191467192093
5.592396198099049,0.9815835743107519
5.606103051525762,0.9758970860324528
5.619809904952476,0.9720034561594177
5.633516758379189,0.9675795002096329
5.647223611805902,0.9657434102229052
5.660930465232616,0.9645693053925993
5.674637318659329,0.9668871484146642
5.688344172086042,0.9681513432149518
5.7020510255127554,0.9726476861455345
5.71575787893947,0.9778192916514612
5.729464732366183,0.9836602414777355
5.743171585792896,0.9922117538473181
5.7568784392196095,0.9982535306322206
5.770585292646323,1.0040000305104717
5.784292146073036,1.0145903910311582
5.797998999499749,1.017641191693417
5.811705852926463,1.026957818717241
5.825412706353176,1.0306345596915407
5.839119559779889,1.036311457712402
5.852826413206603,1.0369368260759173
5.866533266633316,1.0370314931082127
5.880240120060029,1.034971819023887
5.8939469734867425,1.032395542622415
5.907653826913456,1.029898017917
5.92136068034017,1.022572740716399
5.935067533766883,1.0158029977234004
5.9487743871935965,1.0099754021555298
5.96248124062031,1.0025474944402293
5.976188094047023,0.9938589965039788
5.989894947473736,0.9873290803624192
6.00360180090045,0.9794559602045686
6.017308654327163,0.9727121018789604
6.031015507753876,0.9665127702820733
6.04472236118059,0.9641553990946756
6.058429214607303,0.9605339183438691
6.072136068034016,0.9623899567337357
6.0858429214607295,0.9633257132710056
6.099549774887443,0.965687025575352
6.113256628314156,0.9687575044465101
6.12696348174087,0.9752632594941025
6.1406703351675835,0.9809175378471724
6.154377188594297,0.9909792335331669
6.16808404202101,0.9961783130093537
6.181790895447723,1.0055879562402932
6.195497748874437,1.0161076370304347
6.20920460230115,1.0165116930229805
6.222911455727863,1.0271003883922656
6.236618309154577,1.0329657872907183
6.25032516258129,1.037985181254202
6.264032016008003,1.0411169342187228
6.2777388694347165,1.0411045840721427
6.29144572286143,1.0402160769722495
6.305152576288143,1.0373515921367615
6.318859429714857,1.0309019055704234
6.3325662831415706,1.0263272942929809
6.346273136568284,1.0188128542221524
6.359979989994997,1.0107811420314756
6.37368684342171,1.0038145919648873
6.387393696848424,0.9943282649796112
6.401100550275137,0.9854693590830558
6.41480740370185,0.9772432345750537
6.428514257128564,0.9707450237377144
6.442221110555277,0.9643001688065748
6.45592796398199,0.9597569313708705
6.4696348174087035,0.9580720597364253
6.483341670835417,0.9583529478321103
6.49704852426213,0.9586200268241475
6.510755377688843,0.9624241186040515
6.524462231115558,0.9652040516211988
6.538169084542271,0.972312935476259
6.551875937968984,0.9792309207948542
6.5655827913956974,0.987486737756666
6.579289644822411,0.9982668265456643
6.592996498249124,1.0056042917437773
6.606703351675837,1.0130094369238032
6.620410205102551,1.0239500767205287
6.634117058529264,1.0305908430827755
6.647823911955977,1.0350107806035012
6.6615307653826905,1.0420619920044805
6.675237618809404,1.0424599356200779
6.688944472236117,1.046553539522858
6.70265132566283,1.0424855551445151
6.716358179089544,1.0389922180426974
6.730065032516258,1.0352844993805674
6.743771885942971,1.0293074815952556
6.7574787393696845,1.0223728949235538
6.771185592796398,1.0122103932543411
6.784892446223111,1.0050592272827656
6.798599299649824,0.994324256313761
6.812306153076538,0.984908462241981
6.826013006503251,0.9776579024411337
6.839719859929964,0.9699026505568871
6.8534267133566775,0.9626524458936657
6.867133566783391,0.9590199056162336
6.880840420210104,0.9552597259690615
6.894547273636817,0.9536159307200847
6.908254127063531,0.956209182378724
6.921960980490245,0.9585458780377322
6.935667833916958,0.9635967047760734
6.9493746873436715,0.9690039339750035
6.963081540770385,0.9768430218034727
6.976788394197098,0.9899291574428234
6.990495247623811,0.996380886304339
7.004202101050525,1.0050219937966482
7.017908954477238,1.0136900455890754
7.031615807903951,1.023132246211051
7.0453226613306645,1.0306445726967648
7.059029514757378,1.0371804855695954
7.072736368184091,1.0419973373346243
7.086443221610804,1.0463294973495496
7.100150075037518,1.0470023290504655
7.113856928464231,1.047579170365415
7.127563781890945,1.0406284951511129
7.1412706353176585,1.037245640635511
7.154977488744372,1.031163925909986
7.168684342171085,1.0227980774681282
7.182391195597798,1.0139513451936588
7.196098049024512,1.0046282619977764
7.209804902451225,0.9952405352327436
7.223511755877938,0.9867714155123891
7.2372186093046516,0.9760668279917473
7.250925462731365,0.9692713036141386
7.264632316158078,0.9637125814191113
7.278339169584791,0.9600738379290645
7.292046023011505,0.9543682656120067
7.305752876438218,0.9529348357307067
7.319459729864932,0.9543634939236973
7.3331665832916455,0.9573052193806876
