time,flux
0.0,1.0346606892684052
0.013706853426713355,1.0327451213056889
0.02741370685342671,1.0234275869887657
0.041120560280140064,1.0176232310354236
0.05482741370685342,1.011699987395218
0.06853426713356678,1.005144998142563
0.08224112056028013,0.9966699214815542
0.09594797398699349,0.9885588679171399
0.10965482741370684,0.9837773777528425
0.1233616808404202,0.9780973571298308
0.13706853426713356,0.9710724048058964
0.1507753876938469,0.9677357013097002
0.16448224112056026,0.9675258802773444
0.1781890945472736,0.9646734956436288
0.19189594797398699,0.9649901029375169
0.20560280140070034,0.9656519749072819
0.21930965482741369,0.9700451429390495
0.23301650825412704,0.9726247759356133
0.2467233616808404,0.9831102573345373
0.26043021510755376,0.988185891280148
0.2741370685342671,0.9951147151488504
0.28784392196098046,1.006877746801745
0.3015507753876938,1.0148012317937691
0.31525762881440716,1.0200176366985065
0.3289644822411205,1.0258178069751491
0.34267133566783387,1.0340533669337943
0.3563781890945472,1.040564324518938
0.3700850425212606,1.0437408228523952
0.38379189594797397,1.045479282801631
0.3974987493746873,1.0509930275652746
0.41120560280140067,1.0473359671959128
0.424912456228114,1.0488377597945575
0.43861930965482737,1.0503977753929712
0.4523261630815407,1.0482305733449255
0.46603301650825407,1.0428351347137779
0.4797398699349674,1.038520530893764
0.4934467233616808,1.0399308463438215
0.5071535767883941,1.035533734308854
0.5208604302151075,1.0330011823799237
0.5345672836418208,1.0294334082843546
0.5482741370685342,1.0281552976250175
0.5619809904952475,1.0275387610588889
0.5756878439219609,1.0245103116813052
0.5893946973486743,1.0229613551330028
0.6031015507753876,1.0197372044463826
0.616808404202101,1.0236507317902557
0.6305152576288143,1.0248017191821233
0.6442221110555277,1.0281191206568927
0.657928964482241,1.02840538122287
0.6716358179089544,1.0294295403255527
0.6853426713356677,1.030149179880844
0.6990495247623811,1.028598082091233
0.7127563781890944,1.0309920409722666
0.7264632316158078,1.028716866326576
0.7401700850425212,1.0289509995154735
0.7538769384692345,1.0233764735248696
0.7675837918959479,1.0205931892774949
0.7812906453226612,1.0175066934861394
0.7949974987493746,1.013478219740125
0.8087043521760879,1.0059313610039706
0.8224112056028013,0.9978564819704113
0.8361180590295146,0.9918820300697505
0.849824912456228,0.9868502355459504
0.8635317658829413,0.9793495750966034
0.8772386193096547,0.9756132829555698
0.8909454727363681,0.9720706899593846
0.9046523261630814,0.9632574807513288
0.9183591795897948,0.9612998995110266
0.9320660330165081,0.9583381404270961
0.9457728864432215,0.9562215691808952
0.9594797398699348,0.9585820907082544
0.9731865932966483,0.956653244219197
0.9868934467233615,0.9627988799593961
1.000600300150075,0.9645563971721468
1.0143071535767882,0.9654210016611796
1.0280140070035018,0.976375010235634
1.041720860430215,0.9830759811193324
1.0554277138569284,0.9872813755090736
1.0691345672836416,0.9975798162809221
1.0828414207103552,1.006643325450753
1.0965482741370685,1.012396004298464
1.1102551275637818,1.0189170176811573
1.123961980990495,1.0247402860399906
1.1376688344172086,1.0280152772180682
1.1513756878439219,1.0294116235683843
1.1650825412706352,1.0305520879179706
1.1787893946973487,1.0293196019259636
1.192496248124062,1.0305280550197582
1.2062031015507753,1.0277698260244799
1.2199099549774886,1.0224847647590405
1.233616808404202,1.0129900494631117
1.2473236618309154,1.0046376230171918
1.2610305152576287,1.0021676497483127
1.274737368684342,0.9895934421071565
1.2884442221110555,0.9791952842914813
1.3021510755377688,0.9731373732935348
1.315857928964482,0.9641320498618575
1.3295647823911956,0.957638775198016
1.3432716358179089,0.9509600362257988
1.3569784892446222,0.9455696269872408
1.3706853426713355,0.9437425619333608
1.384392196098049,0.9380023945316135
1.3980990495247623,0.9379175530258583
1.4118059029514756,0.9383293910975078
1.4255127563781889,0.9415630448723495
1.4392196098049024,0.9445699404557614
1.4529264632316157,0.9460656410113275
1.466633316658329,0.9498268579913639
1.4803401700850425,0.9532780209214621
1.4940470235117558,0.9599921948626537
1.507753876938469,0.9679198478966471
1.5214607303651824,0.9699849570730098
1.5351675837918959,0.9760004166773152
1.5488744372186092,0.9841195719096564
1.5625812906453225,0.9874238557398645
1.5762881440720358,0.989148914694587
1.5899949974987493,0.9905167034518397
1.6037018509254626,0.9931145607670426
1.6174087043521759,0.9942638595293669
1.6311155577788894,0.9967931169134027
1.6448224112056027,0.9962977681064966
1.658529264632316,0.9967085622628546
1.6722361180590293,0.9922383342143877
1.6859429714857428,0.9938890650355242
1.699649824912456,0.9900765669130229
1.7133566783391694,0.9911049541302184
1.7270635317658827,0.9926392130670487
1.7407703851925962,0.9938062000278939
1.7544772386193095,0.9935214747146203
1.7681840920460228,0.9949122794764269
1.7818909454727363,1.0017949090812854
1.7955977988994496,1.00526165521783
1.8093046523261629,1.0095120243221298
1.8230115057528762,1.0148531793763156
1.8367183591795897,1.0179121715222754
1.850425212606303,1.0247125596316076
1.8641320660330163,1.0285419021012399
1.8778389194597296,1.0323388239648992
1.891545772886443,1.0340945211622192
1.9052526263131564,1.0394975644745392
1.9189594797398697,1.0418600956326804
1.9326663331665832,1.0408036124228743
1.9463731865932965,1.0417860418580915
1.9600800400200098,1.0431655456859554
1.973786893446723,1.0425279455265908
1.9874937468734366,1.037568617814161
2.00120060030015,1.031422811587795
2.014907453726863,1.026457465853385
2.0286143071535765,1.0159897705739012
2.04232116058029,1.0143500296716035
2.0560280140070035,1.0030149659506506
2.069734867433717,1.0009856021547403
2.08344172086043,0.992128129484136
2.0971485742871434,0.9870164601477026
2.1108554277138567,0.9840169885316329
2.12456228114057,0.9781571684964567
2.1382691345672833,0.9761477111603281
2.1519759879939966,0.9715238160337812
2.1656828414207103,0.9758982618179071
2.1793896948474236,0.974215213884703
2.193096548274137,0.979147400710448
2.20680340170085,0.9847426692796389
2.2205102551275635,0.9921002302636055
2.234217108554277,0.9985946491690061
2.24792396198099,1.0059479086652874
2.261630815407704,1.0152480838895501
2.275337668834417,1.0208113280938627
2.2890445222611304,1.0333207687163575
2.3027513756878437,1.0407595035848638
2.316458229114557,1.0479206971320922
2.3301650825412703,1.0520633538714652
2.3438719359679836,1.056112811633387
2.3575787893946973,1.059662014366094
2.3712856428214106,1.0698338881569087
2.384992496248124,1.0655193922249035
2.3986993496748372,1.06812552711204
2.4124062031015505,1.0664020796882556
2.426113056528264,1.064672020845065
2.439819909954977,1.0564178845367327
2.4535267633816904,1.04937822708362
2.467233616808404,1.0438361722367668
2.4809404702351174,1.0344142636514397
2.4946473236618307,1.0257168328448047
2.508354177088544,1.021305579770105
2.5220610305152573,1.0130433414329085
2.5357678839419706,1.0027264744001474
2.549474737368684,1.001943139778293
2.5631815907953976,0.9950940755725284
2.576888444222111,0.9914264635395401
2.5905952976488242,0.9860034948831677
2.6043021510755375,0.9843533394983186
2.618009004502251,0.9850818215798397
2.631715857928964,0.9833443922519849
2.6454227113556774,0.9808813207817738
2.659129564782391,0.9916884281903832
2.6728364182091044,0.9815010802633979
2.6865432716358177,0.9837274842664893
2.700250125062531,0.9873801752184946
2.7139569784892443,0.9886415347839494
2.7276638319159576,0.9868884771815968
2.741370685342671,0.9884745072899398
2.755077538769384,0.9900171250105398
2.768784392196098,0.989682556227378
2.7824912456228112,0.9869877845821893
2.7961980990495245,0.9881654766426142
2.809904952476238,0.983528416789078
2.823611805902951,0.9803196310553616
2.8373186593296644,0.9797542314830173
2.8510255127563777,0.975601491376509
2.8647323661830915,0.9709307725478441
2.8784392196098048,0.9708642343852968
2.892146073036518,0.9668929021171935
2.9058529264632313,0.9647636480502185
2.9195597798899446,0.9626271455230149
2.933266633316658,0.9623798928101002
2.9469734867433712,0.9613461563564006
2.960680340170085,0.9600647109073992
2.9743871935967983,0.9606451178338778
2.9880940470235116,0.9714299087743848
3.001800900450225,0.9761207942410893
3.015507753876938,0.9806244519147969
3.0292146073036514,0.985376930932389
3.0429214607303647,0.9872990858937083
3.056628314157078,0.9944840296168788
3.0703351675837918,1.000123834221103
3.084042021010505,1.0039427031833672
3.0977488744372184,1.0086398163393562
3.1114557278639317,1.0159646032534007
3.125162581290645,1.0146391678511752
3.1388694347173582,1.0206479118464427
3.1525762881440715,1.0210682309927106
3.1662831415707853,1.0196589388931276
3.1799899949974986,1.0148696053678992
3.193696848424212,1.0112651016286531
3.207403701850925,1.0034544363298061
3.2211105552776385,1.0004347711429853
3.2348174087043517,0.9926792360105442
3.248524262131065,0.9815215138428411
3.262231115557779,0.9770913378834921
3.275937968984492,0.9666196051690353
3.2896448224112054,0.9619716117053302
3.3033516758379187,0.9539116132488776
3.317058529264632,0.9451839933598367
3.3307653826913453,0.9389992412127369
3.3444722361180586,0.9401568010606982
3.358179089544772,0.938667463219223
3.3718859429714856,0.9377307093711994
3.385592796398199,0.9374272180098518
3.399299649824912,0.935765487404684
3.4130065032516255,0.9434555110388346
3.4267133566783388,0.947909432855322
3.440420210105052,0.9548122830934013
3.4541270635317654,0.965739994566478
3.467833916958479,0.9751073687697253
3.4815407703851924,0.9802923606160066
3.4952476238119057,0.9901235070792463
3.508954477238619,0.9988647416569381
3.5226613306653323,1.009684298612312
3.5363681840920456,1.015757885945314
3.550075037518759,1.0211744721098852
3.5637818909454726,1.029191473404163
3.577488744372186,1.0355066900783596
3.591195597798899,1.0369110698427881
3.6049024512256125,1.0400699322253761
3.6186093046523258,1.0399877786054694
3.632316158079039,1.0414762059708023
3.6460230115057524,1.037189239957872
3.659729864932466,1.0418818997889345
3.6734367183591794,1.034884083440456
3.6871435717858927,1.0350210465578862
3.700850425212606,1.0330044276139752
3.7145572786393193,1.0242817930761374
3.7282641320660326,1.0207504981342614
3.741970985492746,1.0213447222794196
3.755677838919459,1.0155111488662754
3.769384692346173,1.0182442788765436
3.783091545772886,1.0133727651596367
3.7967983991995995,1.0168633316186382
3.810505252626313,1.01355901090875
3.824212106053026,1.0157701681054834
3.8379189594797394,1.018847408860103
3.8516258129064527,1.015717663903286
3.8653326663331664,1.0221903593377826
3.8790395197598797,1.0250421174752917
3.892746373186593,1.0255263563286008
3.9064532266133063,1.0281756320401136
3.9201600800400196,1.0287510109709934
3.933866933466733,1.0294918462454268
3.947573786893446,1.029860533827022
3.96128064032016,1.0289999656156341
3.974987493746873,1.0239989181801465
3.9886943471735865,1.0292519613920843
4.0024012006003,1.0228651782519027
4.016108054027013,1.0192264384276701
4.029814907453726,1.013303474796287
4.04352176088044,1.0097940565816206
4.057228614307153,1.0045386349021495
4.070935467733866,1.0012631133195065
4.08464232116058,0.9977273563525317
4.098349174587293,0.9923962193437903
4.112056028014007,0.9915134772408255
4.12576288144072,0.9906786211394406
4.139469734867434,0.9927947197740072
4.153176588294147,0.9883227037823487
4.16688344172086,0.9930558333033033
4.1805902951475735,0.9903889237913888
4.194297148574287,0.9956511246578202
4.208004002001,1.0005461596651302
4.221710855427713,1.0056495035565536
4.235417708854427,1.014038769503747
4.24912456228114,1.0178161943448942
4.262831415707853,1.0253215458076983
4.276538269134567,1.0343084290157236
4.29024512256128,1.0409744817003252
4.303951975987993,1.0447943774623658
4.317658829414707,1.0515114260383807
4.331365682841421,1.0543091111447906
4.345072536268134,1.0545272195669841
4.358779389694847,1.051920221648543
4.3724862431215605,1.0507915143687732
4.386193096548274,1.0520185864365377
4.399899949974987,1.045866355784104
4.4136068034017,1.0388141514946845
4.427313656828414,1.0315422432682557
4.441020510255127,1.0253239625714439
4.45472736368184,1.0156269754145444
4.468434217108554,1.0065751501171913
4.482141070535267,0.9974571027250926
4.49584792396198,0.9878735726684249
4.5095547773886935,0.9745331564967108
4.523261630815408,0.9691042114026405
4.536968484242121,0.9611997035318276
4.550675337668834,0.9519956813991846
4.5643821910955475,0.9473363095984125
4.578089044522261,0.9420354936127004
4.591795897948974,0.9388157082677858
4.605502751375687,0.9396779731444158
4.619209604802401,0.938110976424194
4.632916458229114,0.942755669379404
4.646623311655827,0.9451251180624459
4.660330165082541,0.9498814399864213
4.674037018509254,0.9547191413230653
4.687743871935967,0.9604447952110474
4.7014507253626805,0.9672893178007536
4.715157578789395,0.9738036010639443
4.728864432216108,0.9751204628394373
4.742571285642821,0.9782464130328599
4.756278139069535,0.9843151417511142
4.769984992496248,0.9864459238234626
4.783691845922961,0.9898362735808431
4.7973986993496744,0.9955139571808568
4.811105552776388,0.9950108480985109
4.824812406203101,0.9934075119617297
4.838519259629814,0.9917160872293839
4.852226113056528,0.9949128985567162
4.865932966483241,0.9886046333999823
4.879639819909954,0.9892600607430702
4.8933466733366675,0.9858272881875293
4.907053526763381,0.9868419825989192
4.920760380190095,0.9813513813201855
4.934467233616808,0.9783902233999991
4.948174087043522,0.9797424758186749
4.961880940470235,0.9792849436539434
4.975587793896948,0.9756037639809739
4.9892946473236615,0.9795362122195836
5.003001500750375,0.9806288886169551
5.016708354177088,0.9861838427811168
5.030415207603801,0.9874783042358581
5.044122061030515,0.9884201268110989
5.057828914457228,0.992228340010326
5.071535767883941,0.9958718893811817
5.0852426213106545,1.0004345866843232
5.098949474737368,1.0015161549694107
5.112656328164081,1.0029056319134433
5.126363181590795,1.0061844042367636
5.140070035017509,1.0067668374381908
5.153776888444222,1.007824187627819
5.167483741870935,1.0063737788107407
5.1811905952976485,1.0046126092676226
5.194897448724362,1.0015624010197177
5.208604302151075,0.9947267548448143
5.222311155577788,0.987659108666382
5.236018009004502,0.9848341376499105
5.249724862431215,0.9817942630258742
5.263431715857928,0.9755633160589006
5.2771385692846415,0.9690574183196897
5.290845422711355,0.9702396900511726
5.304552276138068,0.9639647548879184
5.318259129564782,0.9612396984057955
5.331965982991496,0.960118819699188
5.345672836418209,0.9601584802720367
5.359379689844922,0.9611389405209739
5.3730865432716355,0.9621215288526298
5.386793396698349,0.9677932226342554
5.400500250125062,0.9754024727022171
5.414207103551775,0.9842569531941725
5.427913956978489,0.989317923034818
5.441620810405202,1.000333091246219
5.455327663831915,1.0073281776408332
5.4690345172586285,1.0161986885518124
5.482741370685342,1.0271589750669428
5.496448224112055,1.038171566749758
5.510155077538768,1.0463076293915414
5.523861930965483,1.050846569127203
5.537568784392196,1.0573342022401018
5.551275637818909,1.0641228988576485
5.5649824912456225,1.0689396908601823
5.578689344672336,1.075035369999346
5.592396198099049,1.0729248341268671
5.606103051525762,1.070385490845759
5.619809904952476,1.07015331804517
5.633516758379189,1.0686419996312806
5.647223611805902,1.0589565264318994
5.660930465232616,1.053404362377296
5.674637318659329,1.0449363896906305
5.688344172086042,1.0363388000338036
5.7020510255127554,1.0326092070063917
5.71575787893947,1.022736531426413
5.729464732366183,1.0172732624008733
5.743171585792896,1.0069266614690584
5.7568784392196095,1.005804704531301
5.770585292646323,0.997536053432666
5.784292146073036,0.9967254230351473
5.797998999499749,0.9930962144759506
5.811705852926463,0.9940265245883477
5.825412706353176,0.9896630786563617
5.839119559779889,0.9938210049680831
5.852826413206603,0.9927370723917203
5.866533266633316,0.9973527679633107
5.880240120060029,0.9998580979684754
5.8939469734867425,1.0023970571824858
5.907653826913456,1.005679511106256
5.92136068034017,1.0099126914989696
5.935067533766883,1.0140599817894824
5.9487743871935965,1.015260931895159
5.96248124062031,1.0177695819969907
5.976188094047023,1.0206792707277659
5.989894947473736,1.0167579642195848
6.00360180090045,1.018910981348814
6.017308654327163,1.0164183481815368
6.031015507753876,1.0146172580031227
6.04472236118059,1.0121641888396065
6.058429214607303,1.014124694971726
6.072136068034016,1.00611103204334
6.0858429214607295,1.0032299935362428
6.099549774887443,1.0036551041896975
6.113256628314156,0.9985664594728045
6.12696348174087,0.9847037233746533
6.1406703351675835,0.9943375370653361
6.154377188594297,0.992704235387991
6.16808404202101,0.9975452451795856
6.181790895447723,0.997440730097578
6.195497748874437,0.9943810886211972
6.20920460230115,1.0012690087954015
6.222911455727863,1.0028141328528748
6.236618309154577,1.0077348375987343
6.25032516258129,1.007198199000398
6.264032016008003,1.0155077339994092
6.2777388694347165,1.015507183803496
6.29144572286143,1.0206642604110119
6.305152576288143,1.0171198118771876
6.318859429714857,1.0218860837877908
6.3325662831415706,1.0225153738176311
6.346273136568284,1.0143930053845036
6.359979989994997,1.0152842564858922
6.37368684342171,1.0173703160100185
6.387393696848424,1.0085611792597637
6.401100550275137,1.0033113608869144
6.41480740370185,0.9966584407751669
6.428514257128564,0.9881120020320047
6.442221110555277,0.9815929915053497
6.45592796398199,0.9749916781598894
6.4696348174087035,0.9610883838255698
6.483341670835417,0.9545650444163157
6.49704852426213,0.949880066121035
6.510755377688843,0.9382382258020961
6.524462231115558,0.933915981511206
6.538169084542271,0.9292823640401746
6.551875937968984,0.9280149297906705
6.5655827913956974,0.9263856385181148
6.579289644822411,0.9249201877922544
6.592996498249124,0.927160417322895
6.606703351675837,0.9281297420874499
6.620410205102551,0.9349256804711871
6.634117058529264,0.9400996844618272
6.647823911955977,0.9484830614049411
6.6615307653826905,0.958539219109995
6.675237618809404,0.9640849682645609
6.688944472236117,0.9807085250759113
6.70265132566283,0.9839275375186272
6.716358179089544,0.9919080075014415
6.730065032516258,1.0017885594051779
6.743771885942971,1.0050304690517282
6.7574787393696845,1.013462975003335
6.771185592796398,1.0168572164933103
6.784892446223111,1.0223822958499171
6.798599299649824,1.026809393952721
6.812306153076538,1.0255340460134033
6.826013006503251,1.0247158987602492
6.839719859929964,1.0211510954495504
6.8534267133566775,1.0220244093735087
6.867133566783391,1.0136297787960054
6.880840420210104,1.0106443335856647
6.894547273636817,1.0064220018437995
6.908254127063531,1.001996458752985
6.921960980490245,0.9953457752286878
6.935667833916958,0.9836940723381671
6.9493746873436715,0.9879674794658665
6.963081540770385,0.9831814154305922
6.976788394197098,0.9833705321999414
6.990495247623811,0.9822325596130499
7.004202101050525,0.9805227422737497
7.017908954477238,0.9774964669807569
7.031615807903951,0.9824586445385594
7.0453226613306645,0.9865178480883761
7.059029514757378,0.9919932084522346
7.072736368184091,0.9924243473108985
7.086443221610804,0.9939647631226642
7.100150075037518,0.9974096768601995
7.113856928464231,0.996701290715254
7.127563781890945,1.0029272166323493
7.1412706353176585,1.0051624941860702
7.154977488744372,1.0128550509596477
7.168684342171085,1.0099401740618552
7.182391195597798,1.010798677064712
7.196098049024512,1.0082055413992956
7.209804902451225,1.0146703747206625
7.223511755877938,1.0060604122287085
7.2372186093046516,1.0096107175591431
7.250925462731365,1.0067923579386635
7.264632316158078,1.00378736422976
7.278339169584791,1.006695077076535
7.292046023011505,1.0000198117901735
7.305752876438218,1.000495741748643
7.319459729864932,0.9944549662077699
7.3331665832916455,0.9991733791693105
7.346873436718359,0.9973060179959723
