time,flux
0.0,1.0062031742846327
0.013706853426713355,0.9957964400766175
0.02741370685342671,0.9858521197210138
0.041120560280140064,0.9749384775440885
0.05482741370685342,0.9640650626157801
0.06853426713356678,0.9553515696056055
0.08224112056028013,0.9486690575057346
0.09594797398699349,0.9436330886356665
0.10965482741370684,0.9398501179420129
0.1233616808404202,0.9385008719682588
0.13706853426713356,0.9412600281414546
0.1507753876938469,0.9436894372839764
0.16448224112056026,0.9489845733981636
0.1781890945472736,0.9583710750431229
0.19189594797398699,0.9652436299714159
0.20560280140070034,0.9749083895300571
0.21930965482741369,0.9850802247509838
0.23301650825412704,0.9960685854289293
0.2467233616808404,1.0067313854838345
0.26043021510755376,1.0144044112532609
0.2741370685342671,1.022865064913343
0.28784392196098046,1.0280747964288164
0.3015507753876938,1.030546942529053
0.31525762881440716,1.0329056425259633
0.3289644822411205,1.0328515052542124
0.34267133566783387,1.0300258689792514
0.3563781890945472,1.0253342764881799
0.3700850425212606,1.019262037147884
0.38379189594797397,1.0117576782495932
0.3974987493746873,1.0015167546540689
0.41120560280140067,0.992147039994661
0.424912456228114,0.9830534332014073
0.43861930965482737,0.9735408209081823
0.4523261630815407,0.9667600278381675
0.46603301650825407,0.9589938336606313
0.4797398699349674,0.9557017775886738
0.4934467233616808,0.9504895979265178
0.5071535767883941,0.9482766656018307
0.5208604302151075,0.9499981133479198
0.5345672836418208,0.9506783643923016
0.5482741370685342,0.9548704748367172
0.5619809904952475,0.9612098011257884
0.5756878439219609,0.9664453915697254
0.5893946973486743,0.9749963011698539
0.6031015507753876,0.9819873166994716
0.616808404202101,0.9901429175567997
0.6305152576288143,0.9977111435970745
0.6442221110555277,1.007045270144394
0.657928964482241,1.0113606190044486
0.6716358179089544,1.0171146088520508
0.6853426713356677,1.0211952231483745
0.6990495247623811,1.0247135053139482
0.7127563781890944,1.0254441110603312
0.7264632316158078,1.026049387824424
0.7401700850425212,1.0245590540076785
0.7538769384692345,1.0216354763338034
0.7675837918959479,1.0188860809854918
0.7812906453226612,1.0161268795022445
0.7949974987493746,1.0110818365085859
0.8087043521760879,1.0065750992288591
0.8224112056028013,1.0026043812168879
0.8361180590295146,0.9993790772962002
0.849824912456228,0.9954625733488937
0.8635317658829413,0.992799045468486
0.8772386193096547,0.9902480679231073
0.8909454727363681,0.9894071816916468
0.9046523261630814,0.988217535080277
0.9183591795897948,0.9909893300065604
0.9320660330165081,0.9909238082746611
0.9457728864432215,0.9909970106537678
0.9594797398699348,0.9925651381150087
0.9731865932966483,0.9939714952657631
0.9868934467233615,0.9952714589268628
1.000600300150075,0.9980539388828029
1.0143071535767882,1.0007823079508111
1.0280140070035018,1.0021055439931215
1.041720860430215,1.0040228259736887
1.0554277138569284,1.0047800001810656
1.0691345672836416,1.0065601808991433
1.0828414207103552,1.0074654959334113
1.0965482741370685,1.0092547310293258
1.1102551275637818,1.011349351037519
1.123961980990495,1.012947311800499
1.1376688344172086,1.013675745242934
1.1513756878439219,1.0152080548937241
1.1650825412706352,1.0178535370362047
1.1787893946973487,1.0198830510154402
1.192496248124062,1.0232361661519482
1.2062031015507753,1.0252061646621957
1.2199099549774886,1.025998454864639
1.233616808404202,1.0287878915809985
1.2473236618309154,1.0296972256851986
1.2610305152576287,1.030623646189877
1.274737368684342,1.032047012754526
1.2884442221110555,1.0314639545039639
1.3021510755377688,1.0310822781766968
1.315857928964482,1.0283914171762096
1.3295647823911956,1.0250158465293773
1.3432716358179089,1.02307494801101
1.3569784892446222,1.0168909311562357
1.3706853426713355,1.0127710838621689
1.384392196098049,1.0066659911718228
1.3980990495247623,1.0015861922137703
1.4118059029514756,0.9962136710347484
1.4255127563781889,0.9918695734855824
1.4392196098049024,0.9865281738191836
1.4529264632316157,0.9841416750934594
1.466633316658329,0.981623035084246
1.4803401700850425,0.9816148384499541
1.4940470235117558,0.9807692421160028
1.507753876938469,0.9847985990872603
1.5214607303651824,0.9868775694920465
1.5351675837918959,0.9925027799710701
1.5488744372186092,0.9983181016203688
1.5625812906453225,1.004564387549198
1.5762881440720358,1.012614034569318
1.5899949974987493,1.0205122746620328
1.6037018509254626,1.0270977276740483
1.6174087043521759,1.0341923273744287
1.6311155577788894,1.0404845756928045
1.6448224112056027,1.0459012084065054
1.658529264632316,1.0482812031000437
1.6722361180590293,1.0491622570183763
1.6859429714857428,1.048470434582976
1.699649824912456,1.0454022216411063
1.7133566783391694,1.041021325282062
1.7270635317658827,1.0353037694491731
1.7407703851925962,1.0274212599662285
1.7544772386193095,1.0181533338038833
1.7681840920460228,1.0076322477462087
1.7818909454727363,0.9970975748579984
1.7955977988994496,0.9875193848883035
1.8093046523261629,0.9782464428770766
1.8230115057528762,0.9694685985407191
1.8367183591795897,0.9617815607731743
1.850425212606303,0.9569476489119375
1.8641320660330163,0.9521354006840291
1.8778389194597296,0.9508267728796935
1.891545772886443,0.9521818155590904
1.9052526263131564,0.9559290105390079
1.9189594797398697,0.9604792841036757
1.9326663331665832,0.9677898931231105
1.9463731865932965,0.9773577057429873
1.9600800400200098,0.9857916741904843
1.973786893446723,0.9964821673288717
1.9874937468734366,1.0056228678512233
2.00120060030015,1.0150274647563906
2.014907453726863,1.0227567911133035
2.0286143071535765,1.0301950223910938
2.04232116058029,1.035358117165519
2.0560280140070035,1.0392436176484268
2.069734867433717,1.0406592989371954
2.08344172086043,1.0380687343686463
2.0971485742871434,1.0355462646070492
2.1108554277138567,1.0304059678938646
2.12456228114057,1.0234218437564002
2.1382691345672833,1.0139695240528226
2.1519759879939966,1.0036836655078667
2.1656828414207103,0.9942410887739261
2.1793896948474236,0.983092709171603
2.193096548274137,0.9732453859967933
2.20680340170085,0.9647583462210321
2.2205102551275635,0.9570322449201547
2.234217108554277,0.9510921492870033
2.24792396198099,0.9458155128893502
2.261630815407704,0.9439128155925505
2.275337668834417,0.9421007021887415
2.2890445222611304,0.9440054476175929
2.3027513756878437,0.9481421929703339
2.316458229114557,0.9543666983453245
2.3301650825412703,0.9618704309824417
2.3438719359679836,0.968389060084034
2.3575787893946973,0.9762560073709806
2.3712856428214106,0.9851289332597415
2.384992496248124,0.9934911152736714
2.3986993496748372,1.0005308832677338
2.4124062031015505,1.0064857039143453
2.426113056528264,1.0128183188596602
2.439819909954977,1.0170495750336221
2.4535267633816904,1.019890383548856
2.467233616808404,1.02144027226489
2.4809404702351174,1.0194303567053329
2.4946473236618307,1.0186195279245416
2.508354177088544,1.0155219234515926
2.5220610305152573,1.0097849571758524
2.5357678839419706,1.0042274974005454
2.549474737368684,1.0005956633885633
2.5631815907953976,0.9938234123811165
2.576888444222111,0.9892241280554523
2.5905952976488242,0.9841590477434484
2.6043021510755375,0.97966520300493
2.618009004502251,0.9761327415959448
2.631715857928964,0.9718898619893046
2.6454227113556774,0.9706127573044394
2.659129564782391,0.9695162608178816
2.6728364182091044,0.9700007395178345
2.6865432716358177,0.971877843799731
2.700250125062531,0.9720348873231246
2.7139569784892443,0.9751172715210732
2.7276638319159576,0.9783273868996666
2.741370685342671,0.9819779128547138
2.755077538769384,0.9842207270362191
2.768784392196098,0.9873064269567987
2.7824912456228112,0.9913893306398325
2.7961980990495245,0.9929228096902255
2.809904952476238,0.9958376284436609
2.823611805902951,0.9988497630727678
2.8373186593296644,0.9992843024370401
2.8510255127563777,1.0018479557042488
2.8647323661830915,1.0036197382284346
2.8784392196098048,1.0046228973736946
2.892146073036518,1.0059798156347006
2.9058529264632313,1.0084999306463893
2.9195597798899446,1.0089478672328749
2.933266633316658,1.0101134613983773
2.9469734867433712,1.0103452016431733
2.960680340170085,1.0127682067986346
2.9743871935967983,1.0132190865311999
2.9880940470235116,1.0152333054272737
3.001800900450225,1.0167703869352225
3.015507753876938,1.0167631531569217
3.0292146073036514,1.0176442422985883
3.0429214607303647,1.0164882651576015
3.056628314157078,1.0168666137923545
3.0703351675837918,1.014534863274824
3.084042021010505,1.0142525431909875
3.0977488744372184,1.0096388150210527
3.1114557278639317,1.0096692974361017
3.125162581290645,1.0050009220714378
3.1388694347173582,1.0013860557415357
3.1525762881440715,0.9974197006258242
3.1662831415707853,0.9941119671767616
3.1799899949974986,0.9911749457370836
3.193696848424212,0.9871842697715344
3.207403701850925,0.9859029113840924
3.2211105552776385,0.9852386147355157
3.2348174087043517,0.9840575766445349
3.248524262131065,0.9862674951310288
3.262231115557779,0.988816890212621
3.275937968984492,0.992370421249477
3.2896448224112054,0.9971773408204156
3.3033516758379187,1.0027568476786293
3.317058529264632,1.0087112295143874
3.3307653826913453,1.01635092030501
3.3444722361180586,1.0233625144407186
3.358179089544772,1.0307055340385034
3.3718859429714856,1.0381525717178257
3.385592796398199,1.044463736882461
3.399299649824912,1.0480767223085512
3.4130065032516255,1.0516797747952333
3.4267133566783388,1.0531779047901526
3.440420210105052,1.0521015988608124
3.4541270635317654,1.0502391599155385
3.467833916958479,1.0466925516757857
3.4815407703851924,1.041231972613548
3.4952476238119057,1.0337481928056418
3.508954477238619,1.0261407486864476
3.5226613306653323,1.0160261758941507
3.5363681840920456,1.0080627432936817
3.550075037518759,0.9971807273057588
3.5637818909454726,0.9898764547661828
3.577488744372186,0.9810606864571324
3.591195597798899,0.9755383202809846
3.6049024512256125,0.9688555120098085
3.6186093046523258,0.9667956260856598
3.632316158079039,0.9655371286231073
3.6460230115057524,0.9670482951332767
3.659729864932466,0.9700513384690568
3.6734367183591794,0.9757429075567102
3.6871435717858927,0.9823728381923722
3.700850425212606,0.9915155421051529
3.7145572786393193,0.9997634743957556
3.7282641320660326,1.009946866837674
3.741970985492746,1.0199746895791773
3.755677838919459,1.030016697971948
3.769384692346173,1.0377830684717684
3.783091545772886,1.045467243672812
3.7967983991995995,1.0500478239969235
3.810505252626313,1.0530372293075756
3.824212106053026,1.0546213764706893
3.8379189594797394,1.0530269150791267
3.8516258129064527,1.0494443127179665
3.8653326663331664,1.0433070036344883
3.8790395197598797,1.0378948564475745
3.892746373186593,1.0271950439357178
3.9064532266133063,1.017932597046789
3.9201600800400196,1.005656844485104
3.933866933466733,0.9948969234215908
3.947573786893446,0.9850495602831854
3.96128064032016,0.97588170213401
3.974987493746873,0.9668910702066837
3.9886943471735865,0.960500817860431
4.0024012006003,0.9564901949580629
4.016108054027013,0.952421821737859
4.029814907453726,0.9522100192640902
4.04352176088044,0.9521112933982522
4.057228614307153,0.957302182213781
4.070935467733866,0.9615723305355147
4.08464232116058,0.9680594976686495
4.098349174587293,0.9760744981613236
4.112056028014007,0.9845648626532142
4.12576288144072,0.9935541609273743
4.139469734867434,1.0015162868907164
4.153176588294147,1.0103638559659756
4.16688344172086,1.0164616218876534
4.1805902951475735,1.0212999659853121
4.194297148574287,1.0254385873504177
4.208004002001,1.026798250348178
4.221710855427713,1.0290234430866623
4.235417708854427,1.0275993564239323
4.24912456228114,1.0244332985463955
4.262831415707853,1.0190683176884467
4.276538269134567,1.0153379616143197
4.29024512256128,1.008846312485731
4.303951975987993,1.0012201392897255
4.317658829414707,0.9937638184579752
4.331365682841421,0.9855168758765632
4.345072536268134,0.9803880725544853
4.358779389694847,0.9732956000055584
4.3724862431215605,0.9681752667780773
4.386193096548274,0.9646299522030005
4.399899949974987,0.9627898754651482
4.4136068034017,0.9599663342086532
4.427313656828414,0.9595498499015238
4.441020510255127,0.9608433043956032
4.45472736368184,0.9624577403600091
4.468434217108554,0.9658224256006304
4.482141070535267,0.9684752679733423
4.49584792396198,0.9727235244227543
4.5095547773886935,0.9771622169935616
4.523261630815408,0.9814850876750122
4.536968484242121,0.9835252418288756
4.550675337668834,0.9879295192700627
4.5643821910955475,0.9920432597480977
4.578089044522261,0.9940702862513412
4.591795897948974,0.9966883628758673
4.605502751375687,0.9973292882927551
4.619209604802401,0.9976894594014712
4.632916458229114,0.9985279043951756
4.646623311655827,0.9986370849393787
4.660330165082541,0.9990756918392469
4.674037018509254,0.9994485012877463
4.687743871935967,0.999669268712986
4.7014507253626805,0.9993207031894803
4.715157578789395,0.998573175930504
4.728864432216108,0.998508160984168
4.742571285642821,0.998264458717602
4.756278139069535,0.9989058619630901
4.769984992496248,0.9987330105212687
4.783691845922961,0.9979421377898802
4.7973986993496744,0.9976779865433542
4.811105552776388,0.99791307826422
4.824812406203101,0.9949723258255344
4.838519259629814,0.9947150537734977
4.852226113056528,0.9924427040632164
4.865932966483241,0.9912059150184241
4.879639819909954,0.989427649559985
4.8933466733366675,0.9875876673401963
4.907053526763381,0.9839340627886869
4.920760380190095,0.9822035853697659
4.934467233616808,0.9798169873776572
4.948174087043522,0.9787767041087215
4.961880940470235,0.9774018771409845
4.975587793896948,0.9763066983911577
4.9892946473236615,0.9773656675954705
5.003001500750375,0.9785141229847585
5.016708354177088,0.9816694380852362
5.030415207603801,0.9852701741218187
5.044122061030515,0.9890249131447622
5.057828914457228,0.9951576849448398
5.071535767883941,1.0004709949787876
5.0852426213106545,1.0060854393332623
5.098949474737368,1.0135467000951373
5.112656328164081,1.020196110060586
5.126363181590795,1.0265530094031583
5.140070035017509,1.0320370369357303
5.153776888444222,1.0358821490095285
5.167483741870935,1.0406217847949109
5.1811905952976485,1.0408121287125194
5.194897448724362,1.0412704678359994
5.208604302151075,1.0400710208621422
5.222311155577788,1.0368737522466656
5.236018009004502,1.0311019004912472
5.249724862431215,1.026307084489153
5.263431715857928,1.019446662779907
5.2771385692846415,1.0117738503500053
5.290845422711355,1.0039753537001348
5.304552276138068,0.9951757008447855
5.318259129564782,0.987672274062631
5.331965982991496,0.9794334663887881
5.345672836418209,0.9745522937049281
5.359379689844922,0.9720280584532363
5.3730865432716355,0.9684678579045203
5.386793396698349,0.9687899211394196
5.400500250125062,0.9698842852044138
5.414207103551775,0.9736658379990882
5.427913956978489,0.9795835508902345
5.441620810405202,0.9872976208086692
5.455327663831915,0.9947900904284047
5.4690345172586285,1.0054200970470974
5.482741370685342,1.0139854942079611
5.496448224112055,1.026124528555578
5.510155077538768,1.034859424778984
5.523861930965483,1.043168401644612
5.537568784392196,1.0514659964809718
5.551275637818909,1.0567405392127351
5.5649824912456225,1.0601385743061593
5.578689344672336,1.0635280472016868
5.592396198099049,1.062463946104747
5.606103051525762,1.0580366671907457
5.619809904952476,1.0533423646187385
5.633516758379189,1.0463312939132094
5.647223611805902,1.0370513746880696
5.660930465232616,1.026653191786161
5.674637318659329,1.0163819960557836
5.688344172086042,1.005306058471215
5.7020510255127554,0.9960802063401681
5.71575787893947,0.9863110537895677
5.729464732366183,0.9783771560265153
5.743171585792896,0.9706743372760048
5.7568784392196095,0.9665383943840972
5.770585292646323,0.9628283015243655
5.784292146073036,0.963058836614146
5.797998999499749,0.9648166213405065
5.811705852926463,0.9685055941794412
5.825412706353176,0.9745957259056841
5.839119559779889,0.9818449687186656
5.852826413206603,0.9904783455111407
5.866533266633316,0.999341498945116
5.880240120060029,1.0083279595641994
5.8939469734867425,1.0169841860311355
5.907653826913456,1.0260839208970711
5.92136068034017,1.0326547628164193
5.935067533766883,1.0387628481741051
5.9487743871935965,1.0424858481983108
5.96248124062031,1.0442992898025563
5.976188094047023,1.0458241414734823
5.989894947473736,1.0435236610058667
6.00360180090045,1.0402996343101756
6.017308654327163,1.035244350128729
6.031015507753876,1.0285503161589644
6.04472236118059,1.0205070250083725
6.058429214607303,1.0130943454042813
6.072136068034016,1.0054703309681838
6.0858429214607295,0.9961897032632757
6.099549774887443,0.9890310782962939
6.113256628314156,0.9822582721843534
6.12696348174087,0.9754609532520895
6.1406703351675835,0.969617495546073
6.154377188594297,0.9679255977188113
6.16808404202101,0.963960420162315
6.181790895447723,0.9633588495294968
6.195497748874437,0.9662888716202037
6.20920460230115,0.9678092421489448
6.222911455727863,0.9706590198356877
6.236618309154577,0.9750193384141903
6.25032516258129,0.9785534584944525
6.264032016008003,0.9840809870620782
6.2777388694347165,0.988792995766641
6.29144572286143,0.993499879885353
6.305152576288143,0.9963438358672231
6.318859429714857,1.0009590329627827
6.3325662831415706,1.0032097210607742
6.346273136568284,1.0049615228577176
6.359979989994997,1.0055234233881924
6.37368684342171,1.005831893570006
6.387393696848424,1.0058197556775477
6.401100550275137,1.0042771413344966
6.41480740370185,1.0030787217135568
6.428514257128564,1.001624443005623
6.442221110555277,1.0005371300002377
6.45592796398199,0.9968493810816438
6.4696348174087035,0.9957219954442049
6.483341670835417,0.9932687996078746
6.49704852426213,0.9917005043564232
6.510755377688843,0.9903659239911379
6.524462231115558,0.989476520654024
6.538169084542271,0.9874826740772586
6.551875937968984,0.9859539800782006
6.5655827913956974,0.9846687717185845
6.579289644822411,0.9845018855388883
6.592996498249124,0.9835220191773272
6.606703351675837,0.9808598860423264
6.620410205102551,0.9804587768311503
6.634117058529264,0.9794543218583279
6.647823911955977,0.9772100574084084
6.6615307653826905,0.9764995446887802
6.675237618809404,0.9745228047951225
6.688944472236117,0.9729884858986763
6.70265132566283,0.9717426609657394
6.716358179089544,0.970110512189447
6.730065032516258,0.9721353387914499
6.743771885942971,0.9722640234301132
6.7574787393696845,0.9731007034665777
6.771185592796398,0.9750992578721333
6.784892446223111,0.9767796406846192
6.798599299649824,0.9814130130760034
6.812306153076538,0.9847860060449538
6.826013006503251,0.9885766610406861
6.839719859929964,0.995625522259742
6.8534267133566775,1.0004735854039666
6.867133566783391,1.0046291937021077
6.880840420210104,1.0104379128781888
6.894547273636817,1.0156690474456107
6.908254127063531,1.0188660497612414
6.921960980490245,1.0219215306530787
6.935667833916958,1.0228901868310822
6.9493746873436715,1.0242564343314302
6.963081540770385,1.0213212975245773
6.976788394197098,1.0185045745097174
6.990495247623811,1.0154645965191464
7.004202101050525,1.0100494613015598
7.017908954477238,1.0023115294891403
7.031615807903951,0.9977298261189798
7.0453226613306645,0.9893907011776375
7.059029514757378,0.9818722800587554
7.072736368184091,0.9754866053496282
7.086443221610804,0.9699627556724167
7.100150075037518,0.9645322931831063
7.113856928464231,0.9620736342454429
7.127563781890945,0.9591447877838013
7.1412706353176585,0.9601403183761786
7.154977488744372,0.9603084747125635
7.168684342171085,0.9659011240227836
7.182391195597798,0.9707655892594909
7.196098049024512,0.9794906124905369
7.209804902451225,0.9867015251140717
7.223511755877938,0.9972339940879825
7.2372186093046516,1.007842455434554
7.250925462731365,1.0175899489727767
7.264632316158078,1.0264778992305723
7.278339169584791,1.036690031691525
7.292046023011505,1.0439416934244496
7.305752876438218,1.0494482198673811
7.319459729864932,1.0542762931069898
7.3331665832916455,1.0560864589228494
