time,flux
0.0,0.9526567143418286
0.013706853426713355,0.9520885782326323
0.02741370685342671,0.9534572516704699
0.041120560280140064,0.9573984241608191
0.05482741370685342,0.9592287471444721
0.06853426713356678,0.960367246314408
0.08224112056028013,0.9676173600992131
0.09594797398699349,0.9763389100146184
0.10965482741370684,0.9827749183272321
0.1233616808404202,0.9886127046473152
0.13706853426713356,0.9989375389188149
0.1507753876938469,1.0094335423336378
0.16448224112056026,1.0155469055702984
0.1781890945472736,1.020798268224617
0.19189594797398699,1.0297987460586893
0.20560280140070034,1.0375613973464386
0.21930965482741369,1.039621988356872
0.23301650825412704,1.0434800301594291
0.2467233616808404,1.0475387653499495
0.26043021510755376,1.0500239495264077
0.2741370685342671,1.0468286529972786
0.28784392196098046,1.044224254043523
0.3015507753876938,1.0395621437615512
0.31525762881440716,1.0369659794938908
0.3289644822411205,1.0323701527376752
0.34267133566783387,1.021101244867781
0.3563781890945472,1.0130073451588983
0.3700850425212606,1.00555379778238
0.38379189594797397,0.9964072493082946
0.3974987493746873,0.9919104251381843
0.41120560280140067,0.981231408962545
0.424912456228114,0.9745672147861384
0.43861930965482737,0.9661876899519175
0.4523261630815407,0.9598051639751218
0.46603301650825407,0.9615472258889599
0.4797398699349674,0.9560799318879774
0.4934467233616808,0.950420499418285
0.5071535767883941,0.9513946126743661
0.5208604302151075,0.9530516711976692
0.5345672836418208,0.9586203445853554
0.5482741370685342,0.9592866292287849
0.5619809904952475,0.9673818792454063
0.5756878439219609,0.9732601523495411
0.5893946973486743,0.9777537230610801
0.6031015507753876,0.9884102219776034
0.616808404202101,0.9959644246878757
0.6305152576288143,1.003581235790243
0.6442221110555277,1.012000553314243
0.657928964482241,1.020032816560193
0.6716358179089544,1.0262345969419855
0.6853426713356677,1.0327231830954857
0.6990495247623811,1.036840223177674
0.7127563781890944,1.0404053593091924
0.7264632316158078,1.0448154849833031
0.7401700850425212,1.0443772828867275
0.7538769384692345,1.0460809477213722
0.7675837918959479,1.042000477461977
0.7812906453226612,1.0394933327660791
0.7949974987493746,1.0382145903591649
0.8087043521760879,1.0316035485294681
0.8224112056028013,1.0247020584035413
0.8361180590295146,1.0172679692718858
0.849824912456228,1.0090944827609387
0.8635317658829413,1.0021778780710675
0.8772386193096547,0.9935245854082516
0.8909454727363681,0.9852295013132141
0.9046523261630814,0.9775540332906159
0.9183591795897948,0.9711840650824592
0.9320660330165081,0.9649903772471171
0.9457728864432215,0.9603903135078418
0.9594797398699348,0.9568338318150317
0.9731865932966483,0.9566496370997989
0.9868934467233615,0.9555230531164833
1.000600300150075,0.955056216328224
1.0143071535767882,0.9542661922480884
1.0280140070035018,0.9618875184686188
1.041720860430215,0.9658453586151315
1.0554277138569284,0.9684203058811688
1.0691345672836416,0.9781363598266132
1.0828414207103552,0.9862331217668454
1.0965482741370685,0.990745939780146
1.1102551275637818,1.00000978677932
1.123961980990495,1.0118977548560644
1.1376688344172086,1.0183054370968796
1.1513756878439219,1.0223425567324018
1.1650825412706352,1.0294788588566468
1.1787893946973487,1.0364963556249756
1.192496248124062,1.0401747778449386
1.2062031015507753,1.0424022401957322
1.2199099549774886,1.0447849586633455
1.233616808404202,1.0436089754537838
1.2473236618309154,1.046512752176733
1.2610305152576287,1.0415226090410974
1.274737368684342,1.0398039750988997
1.2884442221110555,1.037191831526879
1.3021510755377688,1.0263577413199423
1.315857928964482,1.0218636473153584
1.3295647823911956,1.0119952295481605
1.3432716358179089,1.0076275317294245
1.3569784892446222,1.000231690066337
1.3706853426713355,0.9923617813225074
1.384392196098049,0.9813058745006626
1.3980990495247623,0.9732208080623069
1.4118059029514756,0.9665320164320111
1.4255127563781889,0.9616329909201935
1.4392196098049024,0.9583489992483841
1.4529264632316157,0.9583613516209222
1.466633316658329,0.9532367661517513
1.4803401700850425,0.9536762171394906
1.4940470235117558,0.9556889644323021
1.507753876938469,0.9599009757011769
1.5214607303651824,0.9619736611308491
1.5351675837918959,0.9648830722471139
1.5488744372186092,0.977014394425702
1.5625812906453225,0.9801032661757774
1.5762881440720358,0.9914872508528266
1.5899949974987493,0.9972645943829602
1.6037018509254626,1.0050748648270127
1.6174087043521759,1.0134892863320952
1.6311155577788894,1.0218572050595516
1.6448224112056027,1.0287890150610384
1.658529264632316,1.0323087323529156
1.6722361180590293,1.039469295782576
1.6859429714857428,1.041333598801721
1.699649824912456,1.0463126666138027
1.7133566783391694,1.0431276916423409
1.7270635317658827,1.047887076702007
1.7407703851925962,1.0438884735297365
1.7544772386193095,1.0403758077626677
1.7681840920460228,1.0362727815736021
1.7818909454727363,1.0327702488873938
1.7955977988994496,1.0220071814178533
1.8093046523261629,1.018592437101875
1.8230115057528762,1.0079899152852683
1.8367183591795897,1.0013271915386515
1.850425212606303,0.9895861806163397
1.8641320660330163,0.9834288805991152
1.8778389194597296,0.9766459528244466
1.891545772886443,0.9720902564998315
1.9052526263131564,0.9660643977579605
1.9189594797398697,0.9570396329108366
1.9326663331665832,0.9570713178829936
1.9463731865932965,0.9552157318795174
1.9600800400200098,0.9554485075844528
1.973786893446723,0.9554290123960525
1.9874937468734366,0.9589332575586184
2.00120060030015,0.9610900397085897
2.014907453726863,0.9671533769430218
2.0286143071535765,0.9690658944472242
2.04232116058029,0.9792779026444072
2.0560280140070035,0.9870254694549734
2.069734867433717,0.9934482559017942
2.08344172086043,1.0011554712251896
2.0971485742871434,1.0098552895733963
2.1108554277138567,1.0192758951217726
2.12456228114057,1.0236061200622701
2.1382691345672833,1.0288933910111593
2.1519759879939966,1.035743973597178
2.1656828414207103,1.0405394837086386
2.1793896948474236,1.0445625914428671
2.193096548274137,1.0466424885746015
2.20680340170085,1.0456629690622303
2.2205102551275635,1.0446519169233992
2.234217108554277,1.0430596456672505
2.24792396198099,1.0373489013036006
2.261630815407704,1.0316214578926786
2.275337668834417,1.0231932565209674
2.2890445222611304,1.0181819431680712
2.3027513756878437,1.011317277134858
2.316458229114557,1.003050172961764
2.3301650825412703,0.996579029629238
2.3438719359679836,0.989464866819492
2.3575787893946973,0.9816062966173951
2.3712856428214106,0.9699946202073105
2.384992496248124,0.9651539658423434
2.3986993496748372,0.9628692775269335
2.4124062031015505,0.9598462005612594
2.426113056528264,0.9547958706608193
2.439819909954977,0.9554987133875626
2.4535267633816904,0.9540032823259473
2.467233616808404,0.9556507770658921
2.4809404702351174,0.9571331048844843
2.4946473236618307,0.9655235322519629
2.508354177088544,0.9682316252760086
2.5220610305152573,0.9755098497948178
2.5357678839419706,0.9833770251838807
2.549474737368684,0.9906675755264125
2.5631815907953976,0.9979726589355575
2.576888444222111,1.0045649528220655
2.5905952976488242,1.0135607162094704
2.6043021510755375,1.023642764413478
2.618009004502251,1.0285927595383426
2.631715857928964,1.0330943466867861
2.6454227113556774,1.0358304299811105
2.659129564782391,1.0393633133158717
2.6728364182091044,1.0425314019733205
2.6865432716358177,1.0423938311759051
2.700250125062531,1.0439364881564603
2.7139569784892443,1.0445309928609878
2.7276638319159576,1.0403105103445938
2.741370685342671,1.0342348075107708
2.755077538769384,1.0295716750077908
2.768784392196098,1.023338954386495
2.7824912456228112,1.0128790976355888
2.7961980990495245,1.0057331690435727
2.809904952476238,0.9972083389671816
2.823611805902951,0.9901127043985571
2.8373186593296644,0.9841466261503709
2.8510255127563777,0.973986990007127
2.8647323661830915,0.969589746294423
2.8784392196098048,0.9627954263004382
2.892146073036518,0.9593160158687865
2.9058529264632313,0.9596645286023953
2.9195597798899446,0.9544707497410467
2.933266633316658,0.9564118182906576
2.9469734867433712,0.9550523254400004
2.960680340170085,0.958390088977081
2.9743871935967983,0.962640822867995
2.9880940470235116,0.9687739763239763
3.001800900450225,0.9730463166158454
3.015507753876938,0.9804607099759485
3.0292146073036514,0.9906459063938986
3.0429214607303647,0.9956460860949483
3.056628314157078,1.0044817380677387
3.0703351675837918,1.0110335542769975
3.084042021010505,1.0185811137941478
3.0977488744372184,1.0264250638387187
3.1114557278639317,1.031349965217697
3.125162581290645,1.0387228715029833
3.1388694347173582,1.0388586148042651
3.1525762881440715,1.043514315791483
3.1662831415707853,1.0467027885198197
3.1799899949974986,1.0453068366961493
3.193696848424212,1.0433216622729151
3.207403701850925,1.0421379576335703
3.2211105552776385,1.0366573825730336
3.2348174087043517,1.0302202874935626
3.248524262131065,1.0218927801521898
3.262231115557779,1.018707075854471
3.275937968984492,1.0090996165504988
3.2896448224112054,1.0025293775419404
3.3033516758379187,0.9946356412534151
3.317058529264632,0.9866119924764969
3.3307653826913453,0.977870304352607
3.3444722361180586,0.9723458755939406
3.358179089544772,0.9689128806942451
3.3718859429714856,0.9613910040091707
3.385592796398199,0.9583297706753903
3.399299649824912,0.956672607415644
3.4130065032516255,0.9559062817025441
3.4267133566783388,0.9590447916502511
3.440420210105052,0.9578157318773983
3.4541270635317654,0.9610687289246975
3.467833916958479,0.964827792791707
3.4815407703851924,0.9732504046693984
3.4952476238119057,0.9758789837483601
3.508954477238619,0.983904508373582
3.5226613306653323,0.9922287168375868
3.5363681840920456,0.9979155164463773
3.550075037518759,1.0080019715199227
3.5637818909454726,1.0149987326325076
3.577488744372186,1.0206193913865964
3.591195597798899,1.0285328590263982
3.6049024512256125,1.035806341249608
3.6186093046523258,1.0388859350385948
3.632316158079039,1.0437480772069534
3.6460230115057524,1.042503030589182
3.659729864932466,1.0458601583403515
3.6734367183591794,1.0428262594995699
3.6871435717858927,1.039172476087435
3.700850425212606,1.036372189322494
3.7145572786393193,1.0328464783569917
3.7282641320660326,1.028009211889325
3.741970985492746,1.0189706392589444
3.755677838919459,1.0089777898826526
3.769384692346173,1.0048645318512899
3.783091545772886,0.9960914646531588
3.7967983991995995,0.9896139454392723
3.810505252626313,0.9842765510153865
3.824212106053026,0.9732585646071407
3.8379189594797394,0.9671111775249379
3.8516258129064527,0.9611584888792478
3.8653326663331664,0.9617662507361088
3.8790395197598797,0.9563508747462369
3.892746373186593,0.9544751803271898
3.9064532266133063,0.9532947634716203
3.9201600800400196,0.9581882815498663
3.933866933466733,0.958819490051894
3.947573786893446,0.9628879446351021
3.96128064032016,0.9688015013379028
3.974987493746873,0.975638729232572
3.9886943471735865,0.9809367600426412
4.0024012006003,0.9900238654299978
4.016108054027013,0.999051502323932
4.029814907453726,1.003385514423842
4.04352176088044,1.0102991173621894
4.057228614307153,1.0206077830647622
4.070935467733866,1.0274180771851502
4.08464232116058,1.0333226278888183
4.098349174587293,1.0369077645099551
4.112056028014007,1.0418219286736021
4.12576288144072,1.0436433859329781
4.139469734867434,1.0426052245879358
4.153176588294147,1.0414850631848855
4.16688344172086,1.0414120349831628
4.1805902951475735,1.0380473718112473
4.194297148574287,1.0333775542878445
4.208004002001,1.0266017687095452
4.221710855427713,1.0230639035871139
4.235417708854427,1.0135068536675156
4.24912456228114,1.0097591948927984
4.262831415707853,1.0011048770326303
4.276538269134567,0.9909422054756205
4.29024512256128,0.9832614569767836
4.303951975987993,0.9811446818641453
4.317658829414707,0.9701073459060884
4.331365682841421,0.9656459026535297
4.345072536268134,0.9644820942015547
4.358779389694847,0.9594496262037325
4.3724862431215605,0.9570355744437058
4.386193096548274,0.9567831153621362
4.399899949974987,0.9558371367694138
4.4136068034017,0.956960699408394
4.427313656828414,0.9632542645682013
4.441020510255127,0.9661104619657759
4.45472736368184,0.9710130515041862
4.468434217108554,0.9788643011821683
4.482141070535267,0.9848949593782425
4.49584792396198,0.9963728506146791
4.5095547773886935,1.0022358021179858
4.523261630815408,1.0099338892259833
4.536968484242121,1.0145048996259307
4.550675337668834,1.0246730011208853
4.5643821910955475,1.0292165687935224
4.578089044522261,1.0374748298573704
4.591795897948974,1.0369719715344548
4.605502751375687,1.0404560817930355
4.619209604802401,1.0404917915462968
4.632916458229114,1.0444766937142813
4.646623311655827,1.0388184027568854
4.660330165082541,1.0407188761004749
4.674037018509254,1.0358699121556194
4.687743871935967,1.0308058930640098
4.7014507253626805,1.0271624568381603
4.715157578789395,1.019701299150374
4.728864432216108,1.0106170386954618
4.742571285642821,1.0031706938840672
4.756278139069535,0.9980378788233026
4.769984992496248,0.9875675838693344
4.783691845922961,0.9819954559560732
4.7973986993496744,0.9711417697151887
4.811105552776388,0.968426312219559
4.824812406203101,0.9613586720331745
4.838519259629814,0.9592120685154304
4.852226113056528,0.954240362774265
4.865932966483241,0.9543816534325692
4.879639819909954,0.9566846909222732
4.8933466733366675,0.9605730016599446
4.907053526763381,0.9607441169501503
4.920760380190095,0.9637416692031472
4.934467233616808,0.9711549240493709
4.948174087043522,0.9770833169185507
4.961880940470235,0.9843380868816941
4.975587793896948,0.9911121723529045
4.9892946473236615,0.997524242680225
5.003001500750375,1.0074542704940763
5.016708354177088,1.015930770782063
5.030415207603801,1.0178694371375616
5.044122061030515,1.0257464057263448
5.057828914457228,1.0298454455882673
5.071535767883941,1.0364682422588751
5.0852426213106545,1.0423529709436508
5.098949474737368,1.0428684085731257
5.112656328164081,1.0432810341987102
5.126363181590795,1.0418884795555057
5.140070035017509,1.0410684492159126
5.153776888444222,1.0364017929485416
5.167483741870935,1.0326384444563486
5.1811905952976485,1.0263534986644887
5.194897448724362,1.0217553133979118
5.208604302151075,1.0153710947360508
5.222311155577788,1.0067536817340343
5.236018009004502,0.9974036128970869
5.249724862431215,0.9903073228879481
5.263431715857928,0.9849158836489935
5.2771385692846415,0.9787135623863931
5.290845422711355,0.9697232154653043
5.304552276138068,0.9675070821665523
5.318259129564782,0.9594819476490025
5.331965982991496,0.95903701378833
5.345672836418209,0.9583746390760555
5.359379689844922,0.9563079490314587
5.3730865432716355,0.955789863350562
5.386793396698349,0.9606746472714351
5.400500250125062,0.963731790651172
5.414207103551775,0.9678914269753991
5.427913956978489,0.9755828527062467
5.441620810405202,0.9794454273106656
5.455327663831915,0.9853331535107118
5.4690345172586285,0.9941486635705127
5.482741370685342,1.0043451488524338
5.496448224112055,1.0111668038993893
5.510155077538768,1.0179512188704796
5.523861930965483,1.023635999674149
5.537568784392196,1.0333973835836465
5.551275637818909,1.0332675600361878
5.5649824912456225,1.042139141168384
5.578689344672336,1.0412962361189735
5.592396198099049,1.0422252422876044
5.606103051525762,1.042190824998941
5.619809904952476,1.0406108641984277
5.633516758379189,1.0404652107883594
5.647223611805902,1.03335742210296
5.660930465232616,1.0286731032522671
5.674637318659329,1.0219841215508683
5.688344172086042,1.0166814370534667
5.7020510255127554,1.0105486434225543
5.71575787893947,1.002991500399168
5.729464732366183,0.9956157619196914
5.743171585792896,0.9860494237612808
5.7568784392196095,0.9822645862218652
5.770585292646323,0.9741073161402213
5.784292146073036,0.9669476124545008
5.797998999499749,0.9637359882527395
5.811705852926463,0.9592788080054824
5.825412706353176,0.9576830875243073
5.839119559779889,0.9569118493107994
5.852826413206603,0.9573505727046602
5.866533266633316,0.9606883549970818
5.880240120060029,0.9653403405567906
5.8939469734867425,0.9672078302667331
5.907653826913456,0.974948634308173
5.92136068034017,0.9804090943257988
5.935067533766883,0.9859900448071645
5.9487743871935965,0.9925144515211134
5.96248124062031,1.0003907072203004
5.976188094047023,1.0077641119830199
5.989894947473736,1.013400342451565
6.00360180090045,1.0207861490029007
6.017308654327163,1.0255470212198943
6.031015507753876,1.033021770360417
6.04472236118059,1.0383969269189626
6.058429214607303,1.0395872837416849
6.072136068034016,1.0420975375080415
6.0858429214607295,1.0430408390933636
6.099549774887443,1.042967641984445
6.113256628314156,1.0425463803315422
6.12696348174087,1.0346055714377407
6.1406703351675835,1.0316846466658995
6.154377188594297,1.026740613519258
6.16808404202101,1.0196140102931621
6.181790895447723,1.0115269635482034
6.195497748874437,1.006290107648025
6.20920460230115,0.9947799699418786
6.222911455727863,0.9910494823932925
6.236618309154577,0.9838371823501293
6.25032516258129,0.9756573646615511
6.264032016008003,0.9691745766324145
6.2777388694347165,0.9683269060651115
6.29144572286143,0.9627254162665594
6.305152576288143,0.9585223763533828
6.318859429714857,0.9581731412090256
6.3325662831415706,0.9600257724717413
6.346273136568284,0.9601916508912129
6.359979989994997,0.9638048729433071
6.37368684342171,0.9656516521128429
6.387393696848424,0.9697930828778651
6.401100550275137,0.9788399822083471
6.41480740370185,0.9836109235379528
6.428514257128564,0.9888085031293714
6.442221110555277,1.0004369477694954
6.45592796398199,1.0024643696904616
6.4696348174087035,1.0109272892732328
6.483341670835417,1.0188667346440006
6.49704852426213,1.024590864596419
6.510755377688843,1.0278040401036501
6.524462231115558,1.03600651841346
6.538169084542271,1.038324103670168
6.551875937968984,1.0396476724794854
6.5655827913956974,1.0436021080875713
6.579289644822411,1.0398561915567146
6.592996498249124,1.041040648308181
6.606703351675837,1.0386302246128942
6.620410205102551,1.031788203571383
6.634117058529264,1.0266939613224888
6.647823911955977,1.0221856614448617
6.6615307653826905,1.018051801167787
6.675237618809404,1.0083385122735606
6.688944472236117,0.9993112510754287
6.70265132566283,0.9930002491710305
6.716358179089544,0.9847367960730335
6.730065032516258,0.978174141539417
6.743771885942971,0.9723450169953041
6.7574787393696845,0.9660886198219715
6.771185592796398,0.9638940838617849
6.784892446223111,0.9590333523661113
6.798599299649824,0.9597473465290158
6.812306153076538,0.9553309510663294
6.826013006503251,0.9575957654172644
6.839719859929964,0.9605991843385169
6.8534267133566775,0.9634330340721206
6.867133566783391,0.969293567365018
6.880840420210104,0.9746157478059305
6.894547273636817,0.9814351832786753
6.908254127063531,0.98713100533115
6.921960980490245,0.9917107303776977
6.935667833916958,1.0015288129529887
6.9493746873436715,1.0101108715907834
6.963081540770385,1.0161470284787983
6.976788394197098,1.0208743687918416
6.990495247623811,1.029358086247618
7.004202101050525,1.032431756686938
7.017908954477238,1.0373718394381592
7.031615807903951,1.0396102536298806
7.0453226613306645,1.0424904736829277
7.059029514757378,1.0412750463706475
7.072736368184091,1.0406946092042333
7.086443221610804,1.0383472968959147
7.100150075037518,1.0353666813802016
7.113856928464231,1.027323916270697
7.127563781890945,1.0230928663083925
7.1412706353176585,1.0193694696182047
7.154977488744372,1.0093823350760265
7.168684342171085,1.0005891467455934
7.182391195597798,0.9963088194749471
7.196098049024512,0.9891051140368685
7.209804902451225,0.9822332175572215
7.223511755877938,0.976049080443296
7.2372186093046516,0.9699990550944417
7.250925462731365,0.9652091159992015
7.264632316158078,0.9627653737022787
7.278339169584791,0.9605961178999313
7.292046023011505,0.960396008425099
7.305752876438218,0.9614750621045682
7.319459729864932,0.9580965571971857
7.3331665832916455,0.9632022348631893
7.346873436718359,0.9657874172727681
