time,flux
0.0,1.0033321544797502
0.013706853426713355,1.0002549631632343
0.02741370685342671,0.9968030223345749
0.041120560280140064,0.992539091431418
0.05482741370685342,0.9891311442440569
0.06853426713356678,0.9883605437082607
0.08224112056028013,0.9857141977458359
0.09594797398699349,0.9832914120394448
0.10965482741370684,0.9820853136360508
0.1233616808404202,0.9830416257135137
0.13706853426713356,0.98367455930641
0.1507753876938469,0.9867768165363328
0.16448224112056026,0.9899207808448905
0.1781890945472736,0.9930284660223573
0.19189594797398699,0.997726254040784
0.20560280140070034,1.0026771420410048
0.21930965482741369,1.0075336900838059
0.23301650825412704,1.0142691374609658
0.2467233616808404,1.0191021554593171
0.26043021510755376,1.0220940953074964
0.2741370685342671,1.0242085727045196
0.28784392196098046,1.025851821793508
0.3015507753876938,1.0268304325406228
0.31525762881440716,1.0254024557924637
0.3289644822411205,1.02222965320387
0.34267133566783387,1.018831822523307
0.3563781890945472,1.0133932326433692
0.3700850425212606,1.0067079318407879
0.38379189594797397,1.0014451085895373
0.3974987493746873,0.99422244411576
0.41120560280140067,0.9871537959769733
0.424912456228114,0.9818310293838421
0.43861930965482737,0.9770061732539665
0.4523261630815407,0.9725485879179023
0.46603301650825407,0.9694427526957201
0.4797398699349674,0.9684184509248138
0.4934467233616808,0.9684866026197316
0.5071535767883941,0.971399194300237
0.5208604302151075,0.9751327725962524
0.5345672836418208,0.980573587408131
0.5482741370685342,0.9857089227944555
0.5619809904952475,0.9935711834956154
0.5756878439219609,0.999768431390165
0.5893946973486743,1.0082726205471544
0.6031015507753876,1.014675340231831
0.616808404202101,1.022503522981105
0.6305152576288143,1.0250889799450524
0.6442221110555277,1.029067046608024
0.657928964482241,1.0315476318196923
0.6716358179089544,1.0313979266814726
0.6853426713356677,1.0302749664425939
0.6990495247623811,1.0264706747562935
0.7127563781890944,1.0230369640287313
0.7264632316158078,1.016655607839002
0.7401700850425212,1.010434575758284
0.7538769384692345,1.0042414902585783
0.7675837918959479,0.9974122490635086
0.7812906453226612,0.9908074529906465
0.7949974987493746,0.9858604185446713
0.8087043521760879,0.9799979378555433
0.8224112056028013,0.9767841865426917
0.8361180590295146,0.9752725768948761
0.849824912456228,0.9747471852850421
0.8635317658829413,0.9742159921244766
0.8772386193096547,0.977695345826434
0.8909454727363681,0.979631378361732
0.9046523261630814,0.9857869476556492
0.9183591795897948,0.988658015968429
0.9320660330165081,0.9951453342585135
0.9457728864432215,1.0003902171923484
0.9594797398699348,1.004354239040014
0.9731865932966483,1.0088060874245246
0.9868934467233615,1.0140220911595748
1.000600300150075,1.0150695184019025
1.0143071535767882,1.0171804613895254
1.0280140070035018,1.017223829809813
1.041720860430215,1.0179611937247635
1.0554277138569284,1.0150900970023846
1.0691345672836416,1.013014599837178
1.0828414207103552,1.0112493594271514
1.0965482741370685,1.00764510457475
1.1102551275637818,1.0039761327970107
1.123961980990495,1.0016253368787433
1.1376688344172086,0.9963423491336059
1.1513756878439219,0.993870155953519
1.1650825412706352,0.9941057132646268
1.1787893946973487,0.9911922848579787
1.192496248124062,0.9915037525353609
1.2062031015507753,0.9925977383099458
1.2199099549774886,0.9937569897622589
1.233616808404202,0.994230507182436
1.2473236618309154,0.9969664617218719
1.2610305152576287,0.9986283088693452
1.274737368684342,0.9988865238613343
1.2884442221110555,1.0021646100544677
1.3021510755377688,1.0039183342565834
1.315857928964482,1.0033414059898933
1.3295647823911956,1.0046526226131471
1.3432716358179089,1.0034127243605369
1.3569784892446222,1.0025458287086382
1.3706853426713355,1.001027195667129
1.384392196098049,1.0007116203808322
1.3980990495247623,0.9983032847828613
1.4118059029514756,0.9956877086656027
1.4255127563781889,0.9939952010826852
1.4392196098049024,0.9936111215922274
1.4529264632316157,0.9925435520411591
1.466633316658329,0.9904368515867845
1.4803401700850425,0.9914644611764242
1.4940470235117558,0.9915797438920789
1.507753876938469,0.9933210176775037
1.5214607303651824,0.994357891756633
1.5351675837918959,0.9973614068374564
1.5488744372186092,1.0007614431718692
1.5625812906453225,1.0049698587663347
1.5762881440720358,1.0082198994555829
1.5899949974987493,1.0107961208816323
1.6037018509254626,1.0130792803511501
1.6174087043521759,1.0148056055709427
1.6311155577788894,1.0162255469185129
1.6448224112056027,1.0151087636947322
1.658529264632316,1.0132825731127983
1.6722361180590293,1.0136129511545426
1.6859429714857428,1.0094704995264856
1.699649824912456,1.0053066999514937
1.7133566783391694,1.0032126420267902
1.7270635317658827,0.9980071681582997
1.7407703851925962,0.9929132981942361
1.7544772386193095,0.9900527759572358
1.7681840920460228,0.9857284924454431
1.7818909454727363,0.9834986703368157
1.7955977988994496,0.981291246106428
1.8093046523261629,0.9798792256692365
1.8230115057528762,0.9801102664114366
1.8367183591795897,0.9819527515931257
1.850425212606303,0.9847853093875291
1.8641320660330163,0.987616252573606
1.8778389194597296,0.99320850359182
1.891545772886443,0.9972829999368147
1.9052526263131564,1.0034483699070842
1.9189594797398697,1.0086111710761563
1.9326663331665832,1.0119101621837086
1.9463731865932965,1.016253743419287
1.9600800400200098,1.0190208450647396
1.973786893446723,1.02114128465851
1.9874937468734366,1.0209674789209884
2.00120060030015,1.020761295811368
2.014907453726863,1.018757594254078
2.0286143071535765,1.015382932407952
2.04232116058029,1.0117533535244678
2.0560280140070035,1.0070370589691215
2.069734867433717,1.0013407066187725
2.08344172086043,0.9964752253374313
2.0971485742871434,0.9918089870792403
2.1108554277138567,0.987110312287447
2.12456228114057,0.9832059146641704
2.1382691345672833,0.9800725363926062
2.1519759879939966,0.9791075858587476
2.1656828414207103,0.9787581822809867
2.1793896948474236,0.9794731199648937
2.193096548274137,0.982160138981759
2.20680340170085,0.9862790428382568
2.2205102551275635,0.9889614699932131
2.234217108554277,0.9949336062758936
2.24792396198099,1.000545391713655
2.261630815407704,1.0053792436323752
2.275337668834417,1.0112566862835848
2.2890445222611304,1.0148870900921672
2.3027513756878437,1.0191534103944748
2.316458229114557,1.0194337599608243
2.3301650825412703,1.019899043559478
2.3438719359679836,1.0203382038426894
2.3575787893946973,1.0186614910909817
2.3712856428214106,1.0160685102191072
2.384992496248124,1.012024744468984
2.3986993496748372,1.0082160112353284
2.4124062031015505,1.0010866846733733
2.426113056528264,0.9970537628409324
2.439819909954977,0.9905689178892573
2.4535267633816904,0.9869246256378532
2.467233616808404,0.9838106557968844
2.4809404702351174,0.9799723193723393
2.4946473236618307,0.979794055942238
2.508354177088544,0.9784265019642379
2.5220610305152573,0.9806250245102933
2.5357678839419706,0.9820343432533456
2.549474737368684,0.9862236520865866
2.5631815907953976,0.9893061041561592
2.576888444222111,0.9948414944686481
2.5905952976488242,0.999927043865452
2.6043021510755375,1.0055736904302153
2.618009004502251,1.0102383263927281
2.631715857928964,1.0151964513695289
2.6454227113556774,1.0178514740025795
2.659129564782391,1.0195002786923009
2.6728364182091044,1.0210898379634568
2.6865432716358177,1.0197977047348201
2.700250125062531,1.0186386753172922
2.7139569784892443,1.0164063969608421
2.7276638319159576,1.0127840528891936
2.741370685342671,1.0088995792306872
2.755077538769384,1.003329571874855
2.768784392196098,0.9989774064157065
2.7824912456228112,0.9945833149710054
2.7961980990495245,0.9902359026344604
2.809904952476238,0.9857586536635039
2.823611805902951,0.9844653989800362
2.8373186593296644,0.9819314664072201
2.8510255127563777,0.9800219227184148
2.8647323661830915,0.9807204920746422
2.8784392196098048,0.9828550964031753
2.892146073036518,0.9849512542121901
2.9058529264632313,0.9872210769386955
2.9195597798899446,0.9926953434962962
2.933266633316658,0.9967895541117748
2.9469734867433712,1.0012077586639299
2.960680340170085,1.0053472590547503
2.9743871935967983,1.0075861249892206
2.9880940470235116,1.0115868447878678
3.001800900450225,1.0137169337398846
3.015507753876938,1.0143111695464948
3.0292146073036514,1.0138764715627115
3.0429214607303647,1.01445328324101
3.056628314157078,1.012516702946142
3.0703351675837918,1.0108569479812297
3.084042021010505,1.0079450878334866
3.0977488744372184,1.0046938953948659
3.1114557278639317,1.0016828118223664
3.125162581290645,0.999389822104143
3.1388694347173582,0.9961963017480754
3.1525762881440715,0.9939953853726949
3.1662831415707853,0.9915371832696162
3.1799899949974986,0.9913935501045923
3.193696848424212,0.9925740621388517
3.207403701850925,0.9918896447008986
3.2211105552776385,0.9935017777906109
3.2348174087043517,0.996455834956497
3.248524262131065,0.9967886601375056
3.262231115557779,0.9984034414933318
3.275937968984492,1.0006112479223046
3.2896448224112054,1.0028093885619027
3.3033516758379187,1.0040495234631388
3.317058529264632,1.004703506727346
3.3307653826913453,1.004083613953146
3.3444722361180586,1.0046995937560383
3.358179089544772,1.0029877959905884
3.3718859429714856,1.0024965109502832
3.385592796398199,1.000476821969544
3.399299649824912,0.9987337565815113
3.4130065032516255,0.9962699142287353
3.4267133566783388,0.9932231475111333
3.440420210105052,0.9928198658555
3.4541270635317654,0.9911035787199796
3.467833916958479,0.9899182820338882
3.4815407703851924,0.9899198095272583
3.4952476238119057,0.991374828299099
3.508954477238619,0.9926771243292999
3.5226613306653323,0.9959805647613812
3.5363681840920456,0.9989264425060088
3.550075037518759,1.0031270708123234
3.5637818909454726,1.0065466369938427
3.577488744372186,1.0097076691805464
3.591195597798899,1.0129146544363377
3.6049024512256125,1.0165123987450355
3.6186093046523258,1.0179058514775208
3.632316158079039,1.0193826349462451
3.6460230115057524,1.0172203431286762
3.659729864932466,1.016051591033822
3.6734367183591794,1.0143710651050373
3.6871435717858927,1.010716703160885
3.700850425212606,1.0061847351866384
3.7145572786393193,1.0004024311556663
3.7282641320660326,0.9962183381123205
3.741970985492746,0.9910857872810811
3.755677838919459,0.985972732721586
3.769384692346173,0.980026593759502
3.783091545772886,0.976672012846404
3.7967983991995995,0.9741539796576937
3.810505252626313,0.973478858545922
3.824212106053026,0.9730066927476665
3.8379189594797394,0.9746187073692989
3.8516258129064527,0.9777014648901421
3.8653326663331664,0.9817647418119938
3.8790395197598797,0.9887345052038206
3.892746373186593,0.994469522584776
3.9064532266133063,1.0005129960333548
3.9201600800400196,1.0077578079212703
3.933866933466733,1.0157926469274356
3.947573786893446,1.0207617253907078
3.96128064032016,1.023980128263647
3.974987493746873,1.0290458161572769
3.9886943471735865,1.0311861469075592
4.0024012006003,1.031670476852336
4.016108054027013,1.0302642033139056
4.029814907453726,1.0271696213358206
4.04352176088044,1.0227520884721262
4.057228614307153,1.018739892510567
4.070935467733866,1.0117120085278901
4.08464232116058,1.0041726802086677
4.098349174587293,0.9959028624422795
4.112056028014007,0.9905317236213879
4.12576288144072,0.9833195704943909
4.139469734867434,0.9770340736674588
4.153176588294147,0.9723097830539157
4.16688344172086,0.9694627789195873
4.1805902951475735,0.9680789350476164
4.194297148574287,0.9683885234977148
4.208004002001,0.9706619845459861
4.221710855427713,0.9745359887030298
4.235417708854427,0.9791436912538817
4.24912456228114,0.9838236447058649
4.262831415707853,0.9908990155338355
4.276538269134567,0.997760726052006
4.29024512256128,1.0059886257373587
4.303951975987993,1.0114544433869102
4.317658829414707,1.0160600663966313
4.331365682841421,1.0212975724171864
4.345072536268134,1.0243547440002954
4.358779389694847,1.0256566074764082
4.3724862431215605,1.025717205292533
4.386193096548274,1.0230448988926466
4.399899949974987,1.022350508071276
4.4136068034017,1.019538429832628
4.427313656828414,1.013653695853516
4.441020510255127,1.01002794190807
4.45472736368184,1.0052033851241653
4.468434217108554,0.9994947013702696
4.482141070535267,0.9939273019452253
4.49584792396198,0.9903638460231537
4.5095547773886935,0.9882062800506106
4.523261630815408,0.9847282586454594
4.536968484242121,0.9837616574172601
4.550675337668834,0.9836445542626554
4.5643821910955475,0.983748965628544
4.578089044522261,0.9860126797975219
4.591795897948974,0.9869900434754242
4.605502751375687,0.989219875421812
4.619209604802401,0.9932236912461045
4.632916458229114,0.996050546168448
4.646623311655827,0.9986973852578851
4.660330165082541,1.0006317797291382
4.674037018509254,1.0034396589666377
4.687743871935967,1.0051513241595302
4.7014507253626805,1.0050890100320238
4.715157578789395,1.004690098026989
4.728864432216108,1.0036049689372355
4.742571285642821,1.003387824628273
4.756278139069535,1.003888834295952
4.769984992496248,1.0018411947896044
4.783691845922961,1.0012028668154134
4.7973986993496744,1.0000333152325234
4.811105552776388,0.9996698177119789
4.824812406203101,0.9982900925571206
4.838519259629814,0.9982995139601162
4.852226113056528,0.9978261346474478
4.865932966483241,0.9996373683525251
4.879639819909954,0.9999371710970727
4.8933466733366675,1.0035511302193953
4.907053526763381,1.003778248424485
4.920760380190095,1.0070012935004795
4.934467233616808,1.0075491982241676
4.948174087043522,1.0094030184338905
4.961880940470235,1.0091959256966925
4.975587793896948,1.0096015423324751
4.9892946473236615,1.00967832954391
5.003001500750375,1.0082609075904967
5.016708354177088,1.006127423100065
5.030415207603801,1.0024190766390741
5.044122061030515,0.9996758926106866
5.057828914457228,0.995630277699319
5.071535767883941,0.9918271132162537
5.0852426213106545,0.9897247395915465
5.098949474737368,0.9858112157647552
5.112656328164081,0.9829442293267117
5.126363181590795,0.9816590762008789
5.140070035017509,0.9810606657081067
5.153776888444222,0.9810327327293217
5.167483741870935,0.9820950326736657
5.1811905952976485,0.9842448102695298
5.194897448724362,0.9883789777196729
5.208604302151075,0.9931710801459652
5.222311155577788,0.9964340461130788
5.236018009004502,1.0014686532353412
5.249724862431215,1.0087571131993518
5.263431715857928,1.0128420504554032
5.2771385692846415,1.0167278824721158
5.290845422711355,1.020734225179783
5.304552276138068,1.0242400255933248
5.318259129564782,1.02471670992331
5.331965982991496,1.0247336141157053
5.345672836418209,1.022876942932983
5.359379689844922,1.0202770436082116
5.3730865432716355,1.0164038297694327
5.386793396698349,1.0103434754382974
5.400500250125062,1.0055138183127068
5.414207103551775,0.9998898555059031
5.427913956978489,0.9926962632317785
5.441620810405202,0.9873584516417762
5.455327663831915,0.9821754670534637
5.4690345172586285,0.9785365289854554
5.482741370685342,0.9749504732332961
5.496448224112055,0.9729535579279922
5.510155077538768,0.9726084007136708
5.523861930965483,0.9739893001622175
5.537568784392196,0.9767557894374734
5.551275637818909,0.9812851462963929
5.5649824912456225,0.9848446006975663
5.578689344672336,0.9914005682580962
5.592396198099049,0.9976738937822657
5.606103051525762,1.0040479625158267
5.619809904952476,1.008994040230239
5.633516758379189,1.014597496179177
5.647223611805902,1.020457501091189
5.660930465232616,1.0223569021999273
5.674637318659329,1.0247669783122064
5.688344172086042,1.0252233072928383
5.7020510255127554,1.0246004393983796
5.71575787893947,1.0214527834768092
5.729464732366183,1.0175865507612272
5.743171585792896,1.0135049330133188
5.7568784392196095,1.0080091934549624
5.770585292646323,1.0027480454553435
5.784292146073036,0.9965130612823742
5.797998999499749,0.990771946940282
5.811705852926463,0.9860571664191602
5.825412706353176,0.9836982253039086
5.839119559779889,0.9808680744713218
5.852826413206603,0.978956208399111
5.866533266633316,0.979174684048677
5.880240120060029,0.9809568764909935
5.8939469734867425,0.9825156646414609
5.907653826913456,0.9859415841604998
5.92136068034017,0.989947462720131
5.935067533766883,0.9958459901148562
5.9487743871935965,1.0000968234863508
5.96248124062031,1.005033659495831
5.976188094047023,1.008265880076776
5.989894947473736,1.0124667170827355
6.00360180090045,1.0153551742911295
6.017308654327163,1.0176769115917343
6.031015507753876,1.0171842647772067
6.04472236118059,1.0165219257041298
6.058429214607303,1.0139865822877947
6.072136068034016,1.0106121248542157
6.0858429214607295,1.008559490185535
6.099549774887443,1.0051818326436543
6.113256628314156,0.9997229132660623
6.12696348174087,0.9968312980025897
6.1406703351675835,0.9927204131395868
6.154377188594297,0.9899355359215684
6.16808404202101,0.9875715288443927
6.181790895447723,0.9867822149783667
6.195497748874437,0.9851554830511771
6.20920460230115,0.9855455953774788
6.222911455727863,0.9856993859872739
6.236618309154577,0.989642810837886
6.25032516258129,0.9930926984049568
6.264032016008003,0.9954359881411959
6.2777388694347165,1.0000785425619863
6.29144572286143,1.0035893854167308
6.305152576288143,1.0062910736143014
6.318859429714857,1.0108191270268418
6.3325662831415706,1.010159746885573
6.346273136568284,1.0124071153824348
6.359979989994997,1.013543255978269
6.37368684342171,1.01168562351558
6.387393696848424,1.0112467935878944
6.401100550275137,1.009566335043108
6.41480740370185,1.0067127054633134
6.428514257128564,1.0034101634601031
6.442221110555277,1.0001228449940214
6.45592796398199,0.9976100093393426
6.4696348174087035,0.9935763778718019
6.483341670835417,0.9900969907282985
6.49704852426213,0.9901143209906422
6.510755377688843,0.9882648835477396
6.524462231115558,0.9877372065068318
6.538169084542271,0.9893220704471378
6.551875937968984,0.9889481411555505
6.5655827913956974,0.992206624086384
6.579289644822411,0.9941430520688227
6.592996498249124,0.9965451918476936
6.606703351675837,1.000871248137211
6.620410205102551,1.0039171774966118
6.634117058529264,1.006985116570966
6.647823911955977,1.0077100518067266
6.6615307653826905,1.0106211257547413
6.675237618809404,1.0099226819146487
6.688944472236117,1.0096198475104545
6.70265132566283,1.0097629713866874
6.716358179089544,1.0069805328144124
6.730065032516258,1.0062296290165016
6.743771885942971,1.0036388068320838
6.7574787393696845,0.9998813190163928
6.771185592796398,0.9973038351489208
6.784892446223111,0.9955033556933089
6.798599299649824,0.9920363277007688
6.812306153076538,0.9913006952883977
6.826013006503251,0.9898055030916287
6.839719859929964,0.9890924197841283
6.8534267133566775,0.990006511992747
6.867133566783391,0.9926420506216823
6.880840420210104,0.9930114192785612
6.894547273636817,0.9962207429477821
6.908254127063531,0.9996373616088428
6.921960980490245,1.0020219457513688
6.935667833916958,1.0055407197846018
6.9493746873436715,1.007968817652399
6.963081540770385,1.0104761468589092
6.976788394197098,1.0129222864023548
6.990495247623811,1.0136930928576682
7.004202101050525,1.0121731582676536
7.017908954477238,1.011700492480638
7.031615807903951,1.0099129241972258
7.0453226613306645,1.0080122062088488
7.059029514757378,1.0030669032548496
7.072736368184091,0.9998798221466713
7.086443221610804,0.996280126352072
7.100150075037518,0.9924286902790868
7.113856928464231,0.9876905817672389
7.127563781890945,0.9834957900111628
7.1412706353176585,0.9822764937774331
7.154977488744372,0.9817660993776323
7.168684342171085,0.9803856116486303
7.182391195597798,0.9818590922997642
7.196098049024512,0.9844945754016455
7.209804902451225,0.9876641474288873
7.223511755877938,0.9921775297241676
7.2372186093046516,0.9970835381198879
7.250925462731365,1.0031680253287305
7.264632316158078,1.0073980844809265
7.278339169584791,1.0132552936850963
7.292046023011505,1.0175305026176271
7.305752876438218,1.0221446000173662
7.319459729864932,1.0235732774962114
7.3331665832916455,1.0260695217063471
7.346873436718359,1.0249679885887175
