time,flux
0.0,0.9973912501821001
0.013706853426713355,1.0040427486496357
0.02741370685342671,1.0122016881981044
0.041120560280140064,1.0205285437493041
0.05482741370685342,1.027437785668233
0.06853426713356678,1.0323252685372315
0.08224112056028013,1.0343838764715703
0.09594797398699349,1.0365927505911956
0.10965482741370684,1.0392747152997919
0.1233616808404202,1.036794487696213
0.13706853426713356,1.0341628266229583
0.1507753876938469,1.029353857554577
0.16448224112056026,1.024979581086055
0.1781890945472736,1.0224166381512017
0.19189594797398699,1.0112330371626754
0.20560280140070034,1.0032376350737018
0.21930965482741369,0.9949034162652611
0.23301650825412704,0.9895365915234852
0.2467233616808404,0.9801397107730875
0.26043021510755376,0.9747829985300026
0.2741370685342671,0.9701472230969582
0.28784392196098046,0.9661097579027299
0.3015507753876938,0.9650250530374302
0.31525762881440716,0.9645351948591087
0.3289644822411205,0.9631919669979275
0.34267133566783387,0.9669386555381636
0.3563781890945472,0.9715806769678135
0.3700850425212606,0.9756970467725297
0.38379189594797397,0.9816612828869458
0.3974987493746873,0.989506612306643
0.41120560280140067,0.9931393699899915
0.424912456228114,1.0009661723033751
0.43861930965482737,1.0095298879517576
0.4523261630815407,1.0152484098501746
0.46603301650825407,1.023616133368452
0.4797398699349674,1.0266620681376686
0.4934467233616808,1.0290590178463552
0.5071535767883941,1.0318728941439865
0.5208604302151075,1.033910146240522
0.5345672836418208,1.030550591360452
0.5482741370685342,1.0266138466118104
0.5619809904952475,1.024050315838521
0.5756878439219609,1.0194404419969814
0.5893946973486743,1.0150929656867818
0.6031015507753876,1.00777981194982
0.616808404202101,1.0010610879347468
0.6305152576288143,0.9923206820675148
0.6442221110555277,0.9867321502616005
0.657928964482241,0.9816770000714689
0.6716358179089544,0.9755449698384518
0.6853426713356677,0.9708332434620813
0.6990495247623811,0.9688645621960004
0.7127563781890944,0.9672171612000232
0.7264632316158078,0.9677347729856849
0.7401700850425212,0.9687366413686543
0.7538769384692345,0.9736830858047558
0.7675837918959479,0.9780819142625694
0.7812906453226612,0.9848931710983619
0.7949974987493746,0.9896723183747238
0.8087043521760879,0.9976404991526268
0.8224112056028013,1.0045521610019976
0.8361180590295146,1.0138383121423375
0.849824912456228,1.0199667162794155
0.8635317658829413,1.0256446326951998
0.8772386193096547,1.0310219028092351
0.8909454727363681,1.0327416783165155
0.9046523261630814,1.0385087978750709
0.9183591795897948,1.0369798252960587
0.9320660330165081,1.0341505087838228
0.9457728864432215,1.0337387050835214
0.9594797398699348,1.0275595545532719
0.9731865932966483,1.0247357816324445
0.9868934467233615,1.0168530505026183
1.000600300150075,1.0105285568014906
1.0143071535767882,1.0027372845904363
1.0280140070035018,0.9951452667798542
1.041720860430215,0.9875108934781411
1.0554277138569284,0.9811152812585191
1.0691345672836416,0.9744963021713102
1.0828414207103552,0.9672021201821471
1.0965482741370685,0.9661932547304869
1.1102551275637818,0.9638780640179263
1.123961980990495,0.9615859764395
1.1376688344172086,0.9634217620193193
1.1513756878439219,0.9657804191948436
1.1650825412706352,0.9710636920322889
1.1787893946973487,0.9755264531501027
1.192496248124062,0.9802066520590962
1.2062031015507753,0.9896140256551949
1.2199099549774886,0.9952416047817879
1.233616808404202,1.0025964196160926
1.2473236618309154,1.010401731193238
1.2610305152576287,1.0163138545303305
1.274737368684342,1.023593503859199
1.2884442221110555,1.0295750773661523
1.3021510755377688,1.0317639633394158
1.315857928964482,1.0337126348008718
1.3295647823911956,1.0350708633795151
1.3432716358179089,1.0305655375101481
1.3569784892446222,1.0324005064487984
1.3706853426713355,1.0281521065573607
1.384392196098049,1.0220555459253282
1.3980990495247623,1.0172669996556933
1.4118059029514756,1.0085216887168018
1.4255127563781889,1.0025241527763422
1.4392196098049024,0.9937113040048988
1.4529264632316157,0.9865034899245705
1.466633316658329,0.9813078867563532
1.4803401700850425,0.974433913879476
1.4940470235117558,0.9708186192973189
1.507753876938469,0.967773620741944
1.5214607303651824,0.9664459247566995
1.5351675837918959,0.9672905233321842
1.5488744372186092,0.9692029921512093
1.5625812906453225,0.9735583386812279
1.5762881440720358,0.9760329024602691
1.5899949974987493,0.9816637041727238
1.6037018509254626,0.9909441691526333
1.6174087043521759,0.9966319365947375
1.6311155577788894,1.0017580758360791
1.6448224112056027,1.0092770015781471
1.658529264632316,1.017750573694331
1.6722361180590293,1.0219209998859293
1.6859429714857428,1.0284147383757398
1.699649824912456,1.0318327320697935
1.7133566783391694,1.0326678833784355
1.7270635317658827,1.0333931573940809
1.7407703851925962,1.03320904827033
1.7544772386193095,1.0321408758033725
1.7681840920460228,1.0276635080502656
1.7818909454727363,1.0218459272120766
1.7955977988994496,1.0169619621571484
1.8093046523261629,1.0073394807806544
1.8230115057528762,1.0019944572011994
1.8367183591795897,0.9934318937789633
1.850425212606303,0.9857577593471273
1.8641320660330163,0.9780615252887506
1.8778389194597296,0.9741179789172659
1.891545772886443,0.9673770929296917
1.9052526263131564,0.9648073447147271
1.9189594797398697,0.9612166366705241
1.9326663331665832,0.9615898050652542
1.9463731865932965,0.9622192081233576
1.9600800400200098,0.9662060788120476
1.973786893446723,0.9692315463424999
1.9874937468734366,0.9752088671091682
2.00120060030015,0.9809822074851074
2.014907453726863,0.987887826939864
2.0286143071535765,0.9904397072472649
2.04232116058029,1.003307038342326
2.0560280140070035,1.0115354386045925
2.069734867433717,1.0190390146967745
2.08344172086043,1.0263488323472532
2.0971485742871434,1.0319773778196832
2.1108554277138567,1.0348862001594017
2.12456228114057,1.0368463087285251
2.1382691345672833,1.0365530283181283
2.1519759879939966,1.0349781958710231
2.1656828414207103,1.0343792518292203
2.1793896948474236,1.0296580228828067
2.193096548274137,1.0215980698874392
2.20680340170085,1.0160882653619776
2.2205102551275635,1.0119712563614793
2.234217108554277,1.0022319409995797
2.24792396198099,0.9946800408898413
2.261630815407704,0.9902625579924583
2.275337668834417,0.9815199030754951
2.2890445222611304,0.9763720201735567
2.3027513756878437,0.9696590558370131
2.316458229114557,0.9694137256842773
2.3301650825412703,0.9653791123207566
2.3438719359679836,0.9674061177109557
2.3575787893946973,0.9696203406126146
2.3712856428214106,0.9712197351818416
2.384992496248124,0.9767512265546718
2.3986993496748372,0.9819171560115727
2.4124062031015505,0.9886137706816474
2.426113056528264,0.9928070914277732
2.439819909954977,1.0029874906938367
2.4535267633816904,1.008430482661074
2.467233616808404,1.0146264633512903
2.4809404702351174,1.0194876922197216
2.4946473236618307,1.025072602201846
2.508354177088544,1.030008644548513
2.5220610305152573,1.031272054604836
2.5357678839419706,1.033232875599248
2.549474737368684,1.0351499739948882
2.5631815907953976,1.0292791504415113
2.576888444222111,1.0272476314641559
2.5905952976488242,1.0215458077505337
2.6043021510755375,1.0134262096730147
2.618009004502251,1.0074414518335066
2.631715857928964,1.0025569110038404
2.6454227113556774,0.9920462205757313
2.659129564782391,0.9875287711987926
2.6728364182091044,0.9792390960576562
2.6865432716358177,0.9724237418930721
2.700250125062531,0.9696863428274772
2.7139569784892443,0.96566377478614
2.7276638319159576,0.9650795268092571
2.741370685342671,0.964351158191983
2.755077538769384,0.9643352114617406
2.768784392196098,0.9691692858656011
2.7824912456228112,0.9699442147918315
2.7961980990495245,0.9774796771143722
2.809904952476238,0.9836331361269383
2.823611805902951,0.9898866397384606
2.8373186593296644,0.9976213452598189
2.8510255127563777,1.0055613901124545
2.8647323661830915,1.0133238637872923
2.8784392196098048,1.019436870777229
2.892146073036518,1.0269874260834435
2.9058529264632313,1.0333171571819368
2.9195597798899446,1.0342203527132676
2.933266633316658,1.0379064653145518
2.9469734867433712,1.038863825979256
2.960680340170085,1.0380781140032895
2.9743871935967983,1.0354773411027243
2.9880940470235116,1.0284482822252772
3.001800900450225,1.0225472270304317
3.015507753876938,1.017571768255448
3.0292146073036514,1.0114529731386488
3.0429214607303647,1.0034525148243445
3.056628314157078,0.994728601196573
3.0703351675837918,0.9884278625624321
3.084042021010505,0.9826049536957561
3.0977488744372184,0.9755167965653107
3.1114557278639317,0.9696076759513971
3.125162581290645,0.9677489652131059
3.1388694347173582,0.9677057437017986
3.1525762881440715,0.9633738400893667
3.1662831415707853,0.965790480335367
3.1799899949974986,0.9697014146290727
3.193696848424212,0.9740210256858021
3.207403701850925,0.9798330724504853
3.2211105552776385,0.9845671782375048
3.2348174087043517,0.9908246432414568
3.248524262131065,0.9984825071936032
3.262231115557779,1.004867192975933
3.275937968984492,1.0126823578917221
3.2896448224112054,1.018105645645927
3.3033516758379187,1.025119092314569
3.317058529264632,1.0299076281352146
3.3307653826913453,1.0310537748282111
3.3444722361180586,1.0328867195450517
3.358179089544772,1.0324647002780032
3.3718859429714856,1.0298941627511098
3.385592796398199,1.0268019858314787
3.399299649824912,1.0239843195811282
3.4130065032516255,1.0148334401404957
3.4267133566783388,1.0073002654735037
3.440420210105052,1.0020577850951946
3.4541270635317654,0.9957967626691183
3.467833916958479,0.9875283113342007
3.4815407703851924,0.9823663415985359
3.4952476238119057,0.9771273180938428
3.508954477238619,0.968953824553997
3.5226613306653323,0.9699537123952873
3.5363681840920456,0.9654885919370257
3.550075037518759,0.9648135416691038
3.5637818909454726,0.9656401230217069
3.577488744372186,0.9690596503008525
3.591195597798899,0.9735587972187638
3.6049024512256125,0.9790734530705725
3.6186093046523258,0.9857123546494656
3.632316158079039,0.9918933690549875
3.6460230115057524,0.9988226106399596
3.659729864932466,1.0075131301223488
3.6734367183591794,1.014302583691907
3.6871435717858927,1.0217869366218117
3.700850425212606,1.026991788351452
3.7145572786393193,1.0329535558721532
3.7282641320660326,1.0333029097417161
3.741970985492746,1.0362487459628533
3.755677838919459,1.036998013850954
3.769384692346173,1.0366020722884897
3.783091545772886,1.0339680023193196
3.7967983991995995,1.0289851317095873
3.810505252626313,1.02368946571563
3.824212106053026,1.0184932579067927
3.8379189594797394,1.0104772109737237
3.8516258129064527,1.0042654209615078
3.8653326663331664,0.9937087921958184
3.8790395197598797,0.9841793528293329
3.892746373186593,0.9809986661356602
3.9064532266133063,0.9740629884313963
3.9201600800400196,0.9695781536631887
3.933866933466733,0.9664142631200137
3.947573786893446,0.9631269973624385
3.96128064032016,0.9668354759958319
3.974987493746873,0.9662197532142806
3.9886943471735865,0.9681404300819294
4.0024012006003,0.9717034407149967
4.016108054027013,0.9766478021876002
4.029814907453726,0.9832460348342382
4.04352176088044,0.9915490905291077
4.057228614307153,0.9969378165128835
4.070935467733866,1.0053068392112248
4.08464232116058,1.0118042837362118
4.098349174587293,1.0187656272347594
4.112056028014007,1.0253068452740084
4.12576288144072,1.0300641069826015
4.139469734867434,1.032609777692953
4.153176588294147,1.031244814951434
4.16688344172086,1.0316083691360973
4.1805902951475735,1.0305655447769813
4.194297148574287,1.0275835436422442
4.208004002001,1.0226779737361333
4.221710855427713,1.0183301808787968
4.235417708854427,1.011131148691282
4.24912456228114,1.003748706985701
4.262831415707853,0.9975203858900171
4.276538269134567,0.9905622321262392
4.29024512256128,0.9840744774662716
4.303951975987993,0.9796497265980391
4.317658829414707,0.9736975532146868
4.331365682841421,0.9697491385347514
4.345072536268134,0.9683126169391459
4.358779389694847,0.9674664202858839
4.3724862431215605,0.9677182486490201
4.386193096548274,0.968537591190358
4.399899949974987,0.9739796616856446
4.4136068034017,0.9801440551273167
4.427313656828414,0.9862487724990603
4.441020510255127,0.9929136670484232
4.45472736368184,0.9982724800510893
4.468434217108554,1.0086607653990942
4.482141070535267,1.0154551614812397
4.49584792396198,1.0222120096463523
4.5095547773886935,1.0275147346414635
4.523261630815408,1.0300369972494217
4.536968484242121,1.0354496627177792
4.550675337668834,1.0378031660893097
4.5643821910955475,1.0352745812579678
4.578089044522261,1.0333860041637284
4.591795897948974,1.032337845124978
4.605502751375687,1.0284056400845234
4.619209604802401,1.0220078091616218
4.632916458229114,1.0147484304579457
4.646623311655827,1.0105031564323652
4.660330165082541,0.9997300264491982
4.674037018509254,0.9900096962490023
4.687743871935967,0.9863360528089067
4.7014507253626805,0.9776001183346512
4.715157578789395,0.9722303768241872
4.728864432216108,0.9676163824083764
4.742571285642821,0.9646918972699897
4.756278139069535,0.9642535851482884
4.769984992496248,0.962071008316928
4.783691845922961,0.963457895467842
4.7973986993496744,0.9684856689279445
4.811105552776388,0.9728374061531926
4.824812406203101,0.978052826126597
4.838519259629814,0.9832145782025401
4.852226113056528,0.9892201089229391
4.865932966483241,0.9968550900425582
4.879639819909954,1.0057429383181613
4.8933466733366675,1.0136934662549182
4.907053526763381,1.018362486155638
4.920760380190095,1.0250001246709723
4.934467233616808,1.03190790144551
4.948174087043522,1.0330969583602647
4.961880940470235,1.0348285648491151
4.975587793896948,1.0365685993002687
4.9892946473236615,1.0321073156885003
5.003001500750375,1.0308512126327953
5.016708354177088,1.0275029445242525
5.030415207603801,1.0204991258940468
5.044122061030515,1.0123678724023373
5.057828914457228,1.006555680319459
5.071535767883941,0.9972355162469916
5.0852426213106545,0.9926671517838475
5.098949474737368,0.9860224029672091
5.112656328164081,0.97943606707175
5.126363181590795,0.9761780302818439
5.140070035017509,0.9709525720881929
5.153776888444222,0.9697849589917452
5.167483741870935,0.9658593506575794
5.1811905952976485,0.9680556293332585
5.194897448724362,0.9702735583074534
5.208604302151075,0.9746910915129465
5.222311155577788,0.9796923202192656
5.236018009004502,0.9839225965898857
5.249724862431215,0.9912552474477335
5.263431715857928,0.9996274835072213
5.2771385692846415,1.00555309575962
5.290845422711355,1.0141733574502063
5.304552276138068,1.020829580844132
5.318259129564782,1.0231538980052135
5.331965982991496,1.029106595071203
5.345672836418209,1.0333923648517533
5.359379689844922,1.0338172866591913
5.3730865432716355,1.0333612788613988
5.386793396698349,1.033496254594841
5.400500250125062,1.030421647964744
5.414207103551775,1.0248817265620078
5.427913956978489,1.0252724294931241
5.441620810405202,1.013753185914289
5.455327663831915,1.0071861085104896
5.4690345172586285,0.9988600846158677
5.482741370685342,0.9907264366287641
5.496448224112055,0.9830403803113067
5.510155077538768,0.9779102706119025
5.523861930965483,0.9719709525563598
5.537568784392196,0.9678375284401889
5.551275637818909,0.9648410305980601
5.5649824912456225,0.9609660015558915
5.578689344672336,0.961953285012781
5.592396198099049,0.9663122585700982
5.606103051525762,0.9687520062465778
5.619809904952476,0.970801699728403
5.633516758379189,0.9755715057607586
5.647223611805902,0.9845184386777402
5.660930465232616,0.9904930921725382
5.674637318659329,0.9985705687047295
5.688344172086042,1.0082131696442203
5.7020510255127554,1.0137139769942811
5.71575787893947,1.0205112175268232
5.729464732366183,1.0266767748658723
5.743171585792896,1.0322144999065344
5.7568784392196095,1.034999959080736
5.770585292646323,1.0360545915990074
5.784292146073036,1.0365486983421717
5.797998999499749,1.033952536143636
5.811705852926463,1.0306603467697715
5.825412706353176,1.0276509442780826
5.839119559779889,1.0219260902019427
5.852826413206603,1.0148287459368996
5.866533266633316,1.0083966452430766
5.880240120060029,1.0029912428697902
5.8939469734867425,0.9932255379178415
5.907653826913456,0.9850813238351442
5.92136068034017,0.9799877892709964
5.935067533766883,0.9760306114677363
5.9487743871935965,0.9728818059269805
5.96248124062031,0.9686943323349297
5.976188094047023,0.9655674859446406
5.989894947473736,0.9664138014959021
6.00360180090045,0.9695303743565755
6.017308654327163,0.9734180323868895
6.031015507753876,0.9764443655736053
6.04472236118059,0.9760321505142615
6.058429214607303,0.9899015982711772
6.072136068034016,0.9967683163988839
6.0858429214607295,1.002959376663437
6.099549774887443,1.0112357373518424
6.113256628314156,1.0157933884591095
6.12696348174087,1.0212524229989204
6.1406703351675835,1.0265791293401223
6.154377188594297,1.0299006393744594
6.16808404202101,1.031619184166772
6.181790895447723,1.0339082801048387
6.195497748874437,1.0312333270570995
6.20920460230115,1.0311409792097632
6.222911455727863,1.025982392341623
6.236618309154577,1.017602881895201
6.25032516258129,1.0146548876411865
6.264032016008003,1.0057232130375173
6.2777388694347165,0.9990555783062154
6.29144572286143,0.9909379043603598
6.305152576288143,0.981118074384609
6.318859429714857,0.9788378585549261
6.3325662831415706,0.97178582050304
6.346273136568284,0.9681882195816536
6.359979989994997,0.9644839558020493
6.37368684342171,0.9618703786127778
6.387393696848424,0.9602889483596194
6.401100550275137,0.966474086443787
6.41480740370185,0.9684304224696291
6.428514257128564,0.9741510241204624
6.442221110555277,0.9782358061124445
6.45592796398199,0.9852736140321702
6.4696348174087035,0.9918804364181895
6.483341670835417,1.0017387537150384
6.49704852426213,1.0079768317466324
6.510755377688843,1.0149975092341477
6.524462231115558,1.0215490363081117
6.538169084542271,1.0292814300268978
6.551875937968984,1.031865973106148
6.5655827913956974,1.0366294959356295
6.579289644822411,1.0396719579992881
6.592996498249124,1.0379162848574586
6.606703351675837,1.0358875652751696
6.620410205102551,1.0328051791772588
6.634117058529264,1.0270941891821321
6.647823911955977,1.024866562803624
6.6615307653826905,1.0163096983774815
6.675237618809404,1.0089216116858428
6.688944472236117,1.0019981663024247
6.70265132566283,0.993259477532761
6.716358179089544,0.9866659491689765
6.730065032516258,0.9786380463117483
6.743771885942971,0.9747014909489277
6.7574787393696845,0.9685920349726396
6.771185592796398,0.9679256378762352
6.784892446223111,0.9653391335721465
6.798599299649824,0.9662994449492642
6.812306153076538,0.9677016812170898
6.826013006503251,0.9695550697156905
6.839719859929964,0.9747953248302395
6.8534267133566775,0.9806923843318822
6.867133566783391,0.9853169106015641
6.880840420210104,0.9942939021076078
6.894547273636817,1.000832355837023
6.908254127063531,1.0075701804236206
6.921960980490245,1.0141645086746165
6.935667833916958,1.0208476938094344
6.9493746873436715,1.026126950506878
6.963081540770385,1.0307401940474232
6.976788394197098,1.0321760625333511
6.990495247623811,1.0316606029594828
7.004202101050525,1.0295989162784063
7.017908954477238,1.0275115115721052
7.031615807903951,1.0258464218959698
7.0453226613306645,1.0197277911239087
7.059029514757378,1.0147367111749912
7.072736368184091,1.0071877113371592
7.086443221610804,0.9990879160809245
7.100150075037518,0.9924955598857406
7.113856928464231,0.9860850071973847
7.127563781890945,0.981151399357508
7.1412706353176585,0.9743886878487131
7.154977488744372,0.971337200940465
7.168684342171085,0.9680894302568377
7.182391195597798,0.964761088833982
7.196098049024512,0.9651279493052844
7.209804902451225,0.9681904172016799
7.223511755877938,0.9701515012528545
7.2372186093046516,0.9767581542768953
7.250925462731365,0.9802593353196003
7.264632316158078,0.9878400340146234
7.278339169584791,0.9938715736436257
7.292046023011505,1.0024356288229221
7.305752876438218,1.0075612657688886
7.319459729864932,1.0165060566563004
7.3331665832916455,1.0240678517190438
