time,flux
0.0,1.0328558578779747
0.013706853426713355,1.0360385769851213
0.02741370685342671,1.0380596500212547
0.041120560280140064,1.038829751385253
0.05482741370685342,1.0373435228999213
0.06853426713356678,1.036016611208644
0.08224112056028013,1.0328726159742858
0.09594797398699349,1.0271332390104588
0.10965482741370684,1.02150886270544
0.1233616808404202,1.0150080038846852
0.13706853426713356,1.0070846114546148
0.1507753876938469,0.9999606568745734
0.16448224112056026,0.9901043617685898
0.1781890945472736,0.9816046320797056
0.19189594797398699,0.9731775887543529
0.20560280140070034,0.9657257604815952
0.21930965482741369,0.9577962373335435
0.23301650825412704,0.9517126770299759
0.2467233616808404,0.9461797562223143
0.26043021510755376,0.9436711373100338
0.2741370685342671,0.9413670834717571
0.28784392196098046,0.9409354578315084
0.3015507753876938,0.9407508108559917
0.31525762881440716,0.942377255637836
0.3289644822411205,0.9451461722620507
0.34267133566783387,0.9511126566869011
0.3563781890945472,0.9554219958812645
0.3700850425212606,0.9628109876067978
0.38379189594797397,0.9692771477581406
0.3974987493746873,0.9752351849680466
0.41120560280140067,0.9826797751124637
0.424912456228114,0.9884565535902257
0.43861930965482737,0.9942622898447885
0.4523261630815407,0.999974186618833
0.46603301650825407,1.0042997021797408
0.4797398699349674,1.007394838265158
0.4934467233616808,1.008891273169878
0.5071535767883941,1.0096608638862337
0.5208604302151075,1.00908560905067
0.5345672836418208,1.0062638062430898
0.5482741370685342,1.0034485188714746
0.5619809904952475,1.0006084244516862
0.5756878439219609,0.9957160761871177
0.5893946973486743,0.99034279204792
0.6031015507753876,0.9848380567353255
0.616808404202101,0.9801324784112561
0.6305152576288143,0.9741051857412769
0.6442221110555277,0.9698567873330493
0.657928964482241,0.966032666734244
0.6716358179089544,0.9614944247080259
0.6853426713356677,0.9589783657386949
0.6990495247623811,0.9572791694966576
0.7127563781890944,0.9567748927180096
0.7264632316158078,0.9560200188927193
0.7401700850425212,0.9586847911860783
0.7538769384692345,0.9611242947629062
0.7675837918959479,0.9647334931143524
0.7812906453226612,0.9686766975598945
0.7949974987493746,0.9734441632181867
0.8087043521760879,0.9789421799777663
0.8224112056028013,0.9849100401124542
0.8361180590295146,0.9900972289623338
0.849824912456228,0.9962760675327472
0.8635317658829413,1.0020955415240604
0.8772386193096547,1.0064953794602887
0.8909454727363681,1.0105390854175784
0.9046523261630814,1.0139914024814118
0.9183591795897948,1.0177125246642313
0.9320660330165081,1.0198225990488012
0.9457728864432215,1.02195112057636
0.9594797398699348,1.0225778507770944
0.9731865932966483,1.0219340646585482
0.9868934467233615,1.0219130949384305
1.000600300150075,1.0217549308282876
1.0143071535767882,1.0204544595016907
1.0280140070035018,1.0193499984228327
1.041720860430215,1.0182614321107124
1.0554277138569284,1.0170355230516583
1.0691345672836416,1.0159970665120701
1.0828414207103552,1.0149808143231251
1.0965482741370685,1.0161599748795445
1.1102551275637818,1.0154433751427958
1.123961980990495,1.0162655686853046
1.1376688344172086,1.017107773801742
1.1513756878439219,1.0177822923039421
1.1650825412706352,1.0198154592825783
1.1787893946973487,1.0207052599857653
1.192496248124062,1.0226146914646954
1.2062031015507753,1.0245284586530576
1.2199099549774886,1.0267554050484362
1.233616808404202,1.027666304588143
1.2473236618309154,1.0296222906712342
1.2610305152576287,1.0299319258068187
1.274737368684342,1.0310355561354474
1.2884442221110555,1.030554854614915
1.3021510755377688,1.0302815486289454
1.315857928964482,1.0288736501412297
1.3295647823911956,1.0263827073359209
1.3432716358179089,1.0260202055715975
1.3569784892446222,1.024108680173671
1.3706853426713355,1.0205025936713152
1.384392196098049,1.0187933403165759
1.3980990495247623,1.0158764241323757
1.4118059029514756,1.0133620581935445
1.4255127563781889,1.0117444269733549
1.4392196098049024,1.0093889270094343
1.4529264632316157,1.0088627548530988
1.466633316658329,1.0065796930255066
1.4803401700850425,1.0070371812499597
1.4940470235117558,1.0080408297183703
1.507753876938469,1.0092471014186428
1.5214607303651824,1.0102008164209064
1.5351675837918959,1.0128742338670125
1.5488744372186092,1.0153382680009622
1.5625812906453225,1.0183203529766234
1.5762881440720358,1.0214210664228938
1.5899949974987493,1.0240250531842876
1.6037018509254626,1.027420899567232
1.6174087043521759,1.0298682775035826
1.6311155577788894,1.0309375799596594
1.6448224112056027,1.0319134817889188
1.658529264632316,1.0325391136202438
1.6722361180590293,1.0320439039005476
1.6859429714857428,1.03118187067054
1.699649824912456,1.0276667168794558
1.7133566783391694,1.0247933324543235
1.7270635317658827,1.0204498819362817
1.7407703851925962,1.0140708828943636
1.7544772386193095,1.0078958589458542
1.7681840920460228,1.0008806118489886
1.7818909454727363,0.993670785480968
1.7955977988994496,0.9867961226236852
1.8093046523261629,0.9784880527161947
1.8230115057528762,0.9721552939238
1.8367183591795897,0.965659211331298
1.850425212606303,0.9599023181736199
1.8641320660330163,0.9544963003578948
1.8778389194597296,0.9514713660703524
1.891545772886443,0.949570130310016
1.9052526263131564,0.9482955333806175
1.9189594797398697,0.9487546703627459
1.9326663331665832,0.9506887950060301
1.9463731865932965,0.9530119316613798
1.9600800400200098,0.9573712176782324
1.973786893446723,0.962204786104088
1.9874937468734366,0.9664129744308612
2.00120060030015,0.9744953230189836
2.014907453726863,0.9801689096199853
2.0286143071535765,0.9869853113965971
2.04232116058029,0.9933088675672451
2.0560280140070035,0.9981222023989286
2.069734867433717,1.0040226737106546
2.08344172086043,1.0077078259525836
2.0971485742871434,1.0105309327849779
2.1108554277138567,1.0125037555978194
2.12456228114057,1.0130510746819705
2.1382691345672833,1.0114455518567202
2.1519759879939966,1.009209446638353
2.1656828414207103,1.0065881686082851
2.1793896948474236,1.0016554489596308
2.193096548274137,0.9959444944462692
2.20680340170085,0.9896008164415633
2.2205102551275635,0.9826509854403773
2.234217108554277,0.9753803942046075
2.24792396198099,0.9680888087637373
2.261630815407704,0.9609092827947167
2.275337668834417,0.9567334496894965
2.2890445222611304,0.9514381070485664
2.3027513756878437,0.9460966676799296
2.316458229114557,0.943642721223188
2.3301650825412703,0.9429507132840752
2.3438719359679836,0.9434835878826311
2.3575787893946973,0.9441447385528782
2.3712856428214106,0.9446496210830504
2.384992496248124,0.9496697103752249
2.3986993496748372,0.9550315242578994
2.4124062031015505,0.9611518407904303
2.426113056528264,0.9677659229214958
2.439819909954977,0.9748554723276297
2.4535267633816904,0.9826062939250904
2.467233616808404,0.9922598701302136
2.4809404702351174,0.9999264446220975
2.4946473236618307,1.006875892131154
2.508354177088544,1.0143776211492994
2.5220610305152573,1.0195187956239178
2.5357678839419706,1.02506099345485
2.549474737368684,1.0286648099153184
2.5631815907953976,1.0314459931720394
2.576888444222111,1.0337331054388927
2.5905952976488242,1.033994943694707
2.6043021510755375,1.0332355358462122
2.618009004502251,1.0314786290381166
2.631715857928964,1.0285484883247291
2.6454227113556774,1.0254831846676964
2.659129564782391,1.0217375333585628
2.6728364182091044,1.018615375768626
2.6865432716358177,1.013708806066161
2.700250125062531,1.0084329068749636
2.7139569784892443,1.0057255436950079
2.7276638319159576,1.0025359890069065
2.741370685342671,1.0000508308379048
2.755077538769384,0.9983357771317517
2.768784392196098,0.996839671731603
2.7824912456228112,0.9971680868388211
2.7961980990495245,0.9972576911571842
2.809904952476238,1.0039950766871892
2.823611805902951,1.0021286244507592
2.8373186593296644,1.0034494780338457
2.8510255127563777,1.0080851264936896
2.8647323661830915,1.0114460001780807
2.8784392196098048,1.0142636370334945
2.892146073036518,1.0196858303467717
2.9058529264632313,1.0239631659105592
2.9195597798899446,1.0264911893211146
2.933266633316658,1.0287587309315587
2.9469734867433712,1.0330141264156236
2.960680340170085,1.0348465840728336
2.9743871935967983,1.0359038304214525
2.9880940470235116,1.038218555304874
3.001800900450225,1.0367955160660831
3.015507753876938,1.0369856251995397
3.0292146073036514,1.0356470255171855
3.0429214607303647,1.0351130797485921
3.056628314157078,1.0319742779667722
3.0703351675837918,1.0297381590295835
3.084042021010505,1.0283715757061345
3.0977488744372184,1.0265165733625314
3.1114557278639317,1.0243962746664532
3.125162581290645,1.022873704266268
3.1388694347173582,1.0197636516249708
3.1525762881440715,1.0200422297773961
3.1662831415707853,1.0184017471033984
3.1799899949974986,1.0177254714091482
3.193696848424212,1.017253143019517
3.207403701850925,1.0161726339002746
3.2211105552776385,1.0181861974354356
3.2348174087043517,1.0182354691560855
3.248524262131065,1.0197177829367254
3.262231115557779,1.0178261810351439
3.275937968984492,1.0185195821229613
3.2896448224112054,1.0185546874161566
3.3033516758379187,1.0189100609596191
3.317058529264632,1.017275548591145
3.3307653826913453,1.0155531821981891
3.3444722361180586,1.013448874358659
3.358179089544772,1.0103191467193944
3.3718859429714856,1.0077400579842513
3.385592796398199,1.0039285256521953
3.399299649824912,0.9996687467677252
3.4130065032516255,0.9964709402966718
3.4267133566783388,0.9911118204128248
3.440420210105052,0.9870410817400189
3.4541270635317654,0.9835326949548975
3.467833916958479,0.9791659133556126
3.4815407703851924,0.974925418471534
3.4952476238119057,0.971548460946307
3.508954477238619,0.9692424629760047
3.5226613306653323,0.9682308100918372
3.5363681840920456,0.9675001046267391
3.550075037518759,0.9672630112627066
3.5637818909454726,0.96836969062553
3.577488744372186,0.9702857185904253
3.591195597798899,0.9728640944776614
3.6049024512256125,0.9765021280675887
3.6186093046523258,0.9800673150644428
3.632316158079039,0.9832829096367285
3.6460230115057524,0.987856737498199
3.659729864932466,0.9932655851883808
3.6734367183591794,0.9964030307017803
3.6871435717858927,0.999851614000981
3.700850425212606,1.0030973203082627
3.7145572786393193,1.0048327659184408
3.7282641320660326,1.0058868245854824
3.741970985492746,1.005231269907548
3.755677838919459,1.0039611132780895
3.769384692346173,1.002434673918189
3.783091545772886,0.9989945126606464
3.7967983991995995,0.9951039933311818
3.810505252626313,0.9910351097700536
3.824212106053026,0.9847765629477802
3.8379189594797394,0.9778732825630333
3.8516258129064527,0.9724488379536205
3.8653326663331664,0.9660906437265205
3.8790395197598797,0.95958436276919
3.892746373186593,0.9535757065848113
3.9064532266133063,0.9483177589642794
3.9201600800400196,0.9452724281863689
3.933866933466733,0.941275836002432
3.947573786893446,0.939997509398741
3.96128064032016,0.9395950952968632
3.974987493746873,0.9406988523900561
3.9886943471735865,0.9415068485996576
4.0024012006003,0.9468061183557227
4.016108054027013,0.9509650804414655
4.029814907453726,0.9572304899629739
4.04352176088044,0.9645606816883601
4.057228614307153,0.9725302798926528
4.070935467733866,0.980600002258855
4.08464232116058,0.9891159388012469
4.098349174587293,0.9975906621436436
4.112056028014007,1.0068160941828785
4.12576288144072,1.013643567441394
4.139469734867434,1.019888475243029
4.153176588294147,1.025685928267811
4.16688344172086,1.0297726591893992
4.1805902951475735,1.0322689362125124
4.194297148574287,1.0347077531532682
4.208004002001,1.0356081820601963
4.221710855427713,1.0336785791834466
4.235417708854427,1.0310630398553449
4.24912456228114,1.028042653240287
4.262831415707853,1.0237841620029018
4.276538269134567,1.0188931929914966
4.29024512256128,1.0129686515521312
4.303951975987993,1.0070246428371359
4.317658829414707,1.0013465013608152
4.331365682841421,0.9947145075188054
4.345072536268134,0.9905454349181547
4.358779389694847,0.9863508629475085
4.3724862431215605,0.983148171423826
4.386193096548274,0.9808629387364703
4.399899949974987,0.9788838282608884
4.4136068034017,0.9804301675217427
4.427313656828414,0.9815265410509069
4.441020510255127,0.984236516973254
4.45472736368184,0.9876016034907265
4.468434217108554,0.9932550851871682
4.482141070535267,0.9987697529981131
4.49584792396198,1.0047796627573407
4.5095547773886935,1.0122109225600888
4.523261630815408,1.0189327310504883
4.536968484242121,1.0252910865784688
4.550675337668834,1.0311057477462338
4.5643821910955475,1.0380604335552037
4.578089044522261,1.0441685717019336
4.591795897948974,1.0474363993989444
4.605502751375687,1.050599718468752
4.619209604802401,1.0533763395441467
4.632916458229114,1.0542511482862325
4.646623311655827,1.0549740108507275
4.660330165082541,1.053325553347781
4.674037018509254,1.052573882539586
4.687743871935967,1.0493195682751133
4.7014507253626805,1.0448183008621934
4.715157578789395,1.0410810285288483
4.728864432216108,1.036419994096144
4.742571285642821,1.030800084818541
4.756278139069535,1.0263243014421684
4.769984992496248,1.0218124142982068
4.783691845922961,1.0184981071453343
4.7973986993496744,1.0121503356516648
4.811105552776388,1.0097224064461447
4.824812406203101,1.0078011926036947
4.838519259629814,1.0052184430971736
4.852226113056528,1.004029922848536
4.865932966483241,1.003551861784571
4.879639819909954,1.0013748036343304
4.8933466733366675,1.003248818720189
4.907053526763381,1.0039080295663823
4.920760380190095,1.0046816195520352
4.934467233616808,1.006584317258154
4.948174087043522,1.0073142583339463
4.961880940470235,1.008554508251343
4.975587793896948,1.0097212764131027
4.9892946473236615,1.0101716007482433
5.003001500750375,1.0118563194313195
5.016708354177088,1.0107232272723832
5.030415207603801,1.0101995022024899
5.044122061030515,1.0096684542049235
5.057828914457228,1.0076023910007441
5.071535767883941,1.0042900564877701
5.0852426213106545,1.0036378370042158
5.098949474737368,1.0006137743109895
5.112656328164081,0.9982904260313494
5.126363181590795,0.9945086137589734
5.140070035017509,0.992512013364197
5.153776888444222,0.9903186413985579
5.167483741870935,0.9884156927366265
5.1811905952976485,0.9873573635911729
5.194897448724362,0.9843776702200512
5.208604302151075,0.9847880182990386
5.222311155577788,0.9839329416550128
5.236018009004502,0.9839065932997562
5.249724862431215,0.9840187866895512
5.263431715857928,0.9856091320437594
5.2771385692846415,0.9863608287133845
5.290845422711355,0.98757141022248
5.304552276138068,0.9879146155473686
5.318259129564782,0.9892354556628673
5.331965982991496,0.9906192727385207
5.345672836418209,0.9915303028742533
5.359379689844922,0.9906380158161254
5.3730865432716355,0.9899799672494106
5.386793396698349,0.9895351025097845
5.400500250125062,0.9884457407696158
5.414207103551775,0.9857696870168952
5.427913956978489,0.9834092001892357
5.441620810405202,0.9787845408078001
5.455327663831915,0.9753287437175868
5.4690345172586285,0.9713543691253084
5.482741370685342,0.9689031963688328
5.496448224112055,0.9644861983376083
5.510155077538768,0.9604874312536468
5.523861930965483,0.9561488943809077
5.537568784392196,0.9535020882564439
5.551275637818909,0.9517159085616015
5.5649824912456225,0.9499373165672071
5.578689344672336,0.9480166551940737
5.592396198099049,0.9503991598288795
5.606103051525762,0.9506427100790481
5.619809904952476,0.9533477713445375
5.633516758379189,0.9562932873261716
5.647223611805902,0.9610201488051331
5.660930465232616,0.9667000356548741
5.674637318659329,0.9727299263234296
5.688344172086042,0.9783374058203448
5.7020510255127554,0.9858173222326968
5.71575787893947,0.9922062348934872
5.729464732366183,0.9993324267678942
5.743171585792896,1.004943772948601
5.7568784392196095,1.0112664330147836
5.770585292646323,1.0159467630467187
5.784292146073036,1.018887942446349
5.797998999499749,1.023452926301601
5.811705852926463,1.0243862974097504
5.825412706353176,1.0242002186526407
5.839119559779889,1.0232690510037277
5.852826413206603,1.0209998643134421
5.866533266633316,1.018180306273384
5.880240120060029,1.0141799623212582
5.8939469734867425,1.0094403798460365
5.907653826913456,1.0036031285227165
5.92136068034017,0.9979924632472246
5.935067533766883,0.9924485419187841
5.9487743871935965,0.986755830047731
5.96248124062031,0.9822980377678252
5.976188094047023,0.9774761714933085
5.989894947473736,0.9750074841052617
6.00360180090045,0.9730751784498985
6.017308654327163,0.9720740715911862
6.031015507753876,0.9713636308889733
6.04472236118059,0.9736545949759494
6.058429214607303,0.9768325775801693
6.072136068034016,0.9805645415058202
6.0858429214607295,0.9869909382959933
6.099549774887443,0.9924418394310364
6.113256628314156,1.000793187507523
6.12696348174087,1.0081334698499456
6.1406703351675835,1.01711325468368
6.154377188594297,1.0252822821787917
6.16808404202101,1.033114183866859
6.181790895447723,1.040880483088159
6.195497748874437,1.0480926233128829
6.20920460230115,1.054013262877016
6.222911455727863,1.0572514302729428
6.236618309154577,1.0612261739298954
6.25032516258129,1.0634741811551947
6.264032016008003,1.0640941450717571
6.2777388694347165,1.0625087601382295
6.29144572286143,1.060615717399191
6.305152576288143,1.0578133819515527
6.318859429714857,1.0524226131035008
6.3325662831415706,1.045484145375394
6.346273136568284,1.0409458235457425
6.359979989994997,1.0334487818096725
6.37368684342171,1.0272489019651347
6.387393696848424,1.0194255740875624
6.401100550275137,1.0119723107820016
6.41480740370185,1.0058884080137471
6.428514257128564,1.0021695868350498
6.442221110555277,0.9970076883437904
6.45592796398199,0.99347377766134
6.4696348174087035,0.9898614105654604
6.483341670835417,0.9894060237866975
6.49704852426213,0.9894970711577263
6.510755377688843,0.9903355245435653
6.524462231115558,0.9942745228269915
6.538169084542271,0.9947747309580275
6.551875937968984,0.9985998434529691
6.5655827913956974,1.0027315228303164
6.579289644822411,1.0064798913024655
6.592996498249124,1.0125302324186625
6.606703351675837,1.0158701786675126
6.620410205102551,1.0188893437566369
6.634117058529264,1.0235012833596817
6.647823911955977,1.025828544236144
6.6615307653826905,1.0286206314380462
6.675237618809404,1.029687250617504
6.688944472236117,1.0296402571854548
6.70265132566283,1.0294707288806557
6.716358179089544,1.027468050401065
6.730065032516258,1.0243839602854723
6.743771885942971,1.020872522251003
6.7574787393696845,1.0181869480800276
6.771185592796398,1.0119453555937243
6.784892446223111,1.0074542478587107
6.798599299649824,1.0034485108176852
6.812306153076538,0.9984188658388486
6.826013006503251,0.9941902851331882
6.839719859929964,0.9887253194210441
6.8534267133566775,0.9839669450026318
6.867133566783391,0.9816417421923016
6.880840420210104,0.9788958667650742
6.894547273636817,0.9756879594242255
6.908254127063531,0.974250483876813
6.921960980490245,0.9729964525322632
6.935667833916958,0.9725563566671959
6.9493746873436715,0.9723169590411888
6.963081540770385,0.972626657844823
6.976788394197098,0.9741383627243575
6.990495247623811,0.9751891846633504
7.004202101050525,0.9762673114187008
7.017908954477238,0.9749514377965488
7.031615807903951,0.9778066254172786
7.0453226613306645,0.9776776422655374
7.059029514757378,0.9761131243644612
7.072736368184091,0.9775436737628133
7.086443221610804,0.9770987386228658
7.100150075037518,0.9774249522869467
7.113856928464231,0.9749903428038507
7.127563781890945,0.9745790447477211
7.1412706353176585,0.9724838103186325
7.154977488744372,0.9712188315289934
7.168684342171085,0.9700476757923621
7.182391195597798,0.9683773736697272
7.196098049024512,0.9682411960193678
7.209804902451225,0.9665304715919927
7.223511755877938,0.9657594617718414
7.2372186093046516,0.9664960976618815
7.250925462731365,0.9672835434364634
7.264632316158078,0.9683368770067046
7.278339169584791,0.9699062283762662
7.292046023011505,0.9730324989331568
7.305752876438218,0.9752136191108929
7.319459729864932,0.9794977899005711
7.3331665832916455,0.983350638838147
7.346873436718359,0.9868417376768681
