time,flux
0.0,1.0170571248370648
0.013706853426713355,1.0099493166908589
0.02741370685342671,1.00314760395821
0.041120560280140064,0.9965345509574624
0.05482741370685342,0.9896711908947616
0.06853426713356678,0.9838605494258454
0.08224112056028013,0.9779187060059824
0.09594797398699349,0.97379696640427
0.10965482741370684,0.9723137892602091
0.1233616808404202,0.9706803133873009
0.13706853426713356,0.9705892620797785
0.1507753876938469,0.9731691209501883
0.16448224112056026,0.9761132887134533
0.1781890945472736,0.9798922856515749
0.19189594797398699,0.9849269514733117
0.20560280140070034,0.9917396673447061
0.21930965482741369,0.9962674719944106
0.23301650825412704,1.0038561766385676
0.2467233616808404,1.0091188276123952
0.26043021510755376,1.0125562141242335
0.2741370685342671,1.0164057804049407
0.28784392196098046,1.019058686934823
0.3015507753876938,1.0192207998229668
0.31525762881440716,1.0189067491402617
0.3289644822411205,1.0179967424384926
0.34267133566783387,1.0153783175796005
0.3563781890945472,1.0118452140186551
0.3700850425212606,1.008859584413295
0.38379189594797397,1.0033327096978932
0.3974987493746873,0.9989266004124565
0.41120560280140067,0.9949873275654119
0.424912456228114,0.9915575540654757
0.43861930965482737,0.9878188643225131
0.4523261630815407,0.9857928513590785
0.46603301650825407,0.9856313136841272
0.4797398699349674,0.9866481226929329
0.4934467233616808,0.9876671393708374
0.5071535767883941,0.9902861084651863
0.5208604302151075,0.9941439635370155
0.5345672836418208,0.9970566274374176
0.5482741370685342,1.0029515614627424
0.5619809904952475,1.0069948753171056
0.5756878439219609,1.0113841488638629
0.5893946973486743,1.0154781746285444
0.6031015507753876,1.0182342957309916
0.616808404202101,1.0183381863054126
0.6305152576288143,1.0202140078095263
0.6442221110555277,1.0193346189829828
0.657928964482241,1.0177976593156588
0.6716358179089544,1.0143781746404157
0.6853426713356677,1.0107935584747059
0.6990495247623811,1.0046771017741531
0.7127563781890944,0.9999263327248791
0.7264632316158078,0.9939526004167025
0.7401700850425212,0.9873400393980347
0.7538769384692345,0.9820573167209481
0.7675837918959479,0.9773870745832125
0.7812906453226612,0.9735575387316888
0.7949974987493746,0.9713637886837043
0.8087043521760879,0.9706522167169054
0.8224112056028013,0.9712111928133392
0.8361180590295146,0.9728800210655209
0.849824912456228,0.9764362052878954
0.8635317658829413,0.9806059733739432
0.8772386193096547,0.9876330682323035
0.8909454727363681,0.9940833723960847
0.9046523261630814,1.0001887562438745
0.9183591795897948,1.0071481910552713
0.9320660330165081,1.0131325267149582
0.9457728864432215,1.0188414265556642
0.9594797398699348,1.0238713980755134
0.9731865932966483,1.027236162765673
0.9868934467233615,1.0301696217784677
1.000600300150075,1.0302557367880745
1.0143071535767882,1.0293903854706326
1.0280140070035018,1.0264338689106078
1.041720860430215,1.0231141896849216
1.0554277138569284,1.0191036239962428
1.0691345672836416,1.0129625411942937
1.0828414207103552,1.0064475738517675
1.0965482741370685,1.0007962109072526
1.1102551275637818,0.9948988988539471
1.123961980990495,0.9893659251488981
1.1376688344172086,0.9835219073850303
1.1513756878439219,0.981683223446949
1.1650825412706352,0.978474768254411
1.1787893946973487,0.9776279965651664
1.192496248124062,0.9790390455840429
1.2062031015507753,0.9803285195065147
1.2199099549774886,0.9827747224101526
1.233616808404202,0.9868940735533697
1.2473236618309154,0.9916307141357974
1.2610305152576287,0.994561389379983
1.274737368684342,1.0005397829657376
1.2884442221110555,1.004665245264085
1.3021510755377688,1.008706901827318
1.315857928964482,1.011214228747826
1.3295647823911956,1.0133055964544468
1.3432716358179089,1.0145442712021344
1.3569784892446222,1.015752144223133
1.3706853426713355,1.0121844484493074
1.384392196098049,1.0098856668189953
1.3980990495247623,1.0064264450899567
1.4118059029514756,1.0023141810242502
1.4255127563781889,0.9990962452966655
1.4392196098049024,0.9937858090045956
1.4529264632316157,0.9898342974972666
1.466633316658329,0.9865744629574118
1.4803401700850425,0.9838189102868957
1.4940470235117558,0.9821811868694106
1.507753876938469,0.9807733368815403
1.5214607303651824,0.9825264596536573
1.5351675837918959,0.9844045475515006
1.5488744372186092,0.987837393881791
1.5625812906453225,0.9907994198657455
1.5762881440720358,0.9976263167344258
1.5899949974987493,1.0023977044662162
1.6037018509254626,1.0080740009446354
1.6174087043521759,1.0137910739794425
1.6311155577788894,1.0185847321680614
1.6448224112056027,1.0228051723523142
1.658529264632316,1.0259127970991198
1.6722361180590293,1.0268324677896952
1.6859429714857428,1.0293202159618522
1.699649824912456,1.0269300712634997
1.7133566783391694,1.0243724741609632
1.7270635317658827,1.0209882081397752
1.7407703851925962,1.0160958557803543
1.7544772386193095,1.0105660273018828
1.7681840920460228,1.003955871391909
1.7818909454727363,0.9963898365762887
1.7955977988994496,0.989706979758751
1.8093046523261629,0.9830836242315859
1.8230115057528762,0.978384822953113
1.8367183591795897,0.9743744089897108
1.850425212606303,0.9709826568234511
1.8641320660330163,0.969707113651803
1.8778389194597296,0.9691266816658015
1.891545772886443,0.9699530987107591
1.9052526263131564,0.9726415798731826
1.9189594797398697,0.9770614598669031
1.9326663331665832,0.9823516983268649
1.9463731865932965,0.9890000163810432
1.9600800400200098,0.9964056165742431
1.973786893446723,0.9997788345393159
1.9874937468734366,1.008533563131237
2.00120060030015,1.0128479442102527
2.014907453726863,1.0175163256767505
2.0286143071535765,1.021655615608775
2.04232116058029,1.023562810701787
2.0560280140070035,1.0243122525512152
2.069734867433717,1.0239336938987227
2.08344172086043,1.0221369635994595
2.0971485742871434,1.0186041466441569
2.1108554277138567,1.0132163958209592
2.12456228114057,1.0106447832452667
2.1382691345672833,1.005487388281936
2.1519759879939966,0.9995279055990597
2.1656828414207103,0.9942386954624591
2.1793896948474236,0.9915944312763059
2.193096548274137,0.9878835434018501
2.20680340170085,0.9851917648593767
2.2205102551275635,0.9849611756700817
2.234217108554277,0.984500193438424
2.24792396198099,0.9861266677413003
2.261630815407704,0.9893715188211938
2.275337668834417,0.9918369823998988
2.2890445222611304,0.9955094414619744
2.3027513756878437,1.0000842691167653
2.316458229114557,1.0040560284088733
2.3301650825412703,1.008103259035471
2.3438719359679836,1.0120526132754617
2.3575787893946973,1.014456028148913
2.3712856428214106,1.0160625803971348
2.384992496248124,1.0164704624059444
2.3986993496748372,1.0150425344618537
2.4124062031015505,1.0138860636272604
2.426113056528264,1.0115521978652349
2.439819909954977,1.0072470530833386
2.4535267633816904,1.003274885621559
2.467233616808404,0.9964051317809672
2.4809404702351174,0.9922347510440722
2.4946473236618307,0.9865493977064935
2.508354177088544,0.9815290175120062
2.5220610305152573,0.9772817342635831
2.5357678839419706,0.975187149376835
2.549474737368684,0.9748062943168462
2.5631815907953976,0.9743804203423206
2.576888444222111,0.9759280907760574
2.5905952976488242,0.9788814486486772
2.6043021510755375,0.9822744258222841
2.618009004502251,0.9866472071749957
2.631715857928964,0.9932454726535032
2.6454227113556774,1.0004171518703306
2.659129564782391,1.0065212555838758
2.6728364182091044,1.0130523219723464
2.6865432716358177,1.0187687511368997
2.700250125062531,1.0233351492638578
2.7139569784892443,1.0277432548384982
2.7276638319159576,1.0308701962145403
2.741370685342671,1.0310585312664262
2.755077538769384,1.0306442691414845
2.768784392196098,1.0298764199685109
2.7824912456228112,1.0254781164929447
2.7961980990495245,1.0194889933919198
2.809904952476238,1.0144760245532551
2.823611805902951,1.0076752598558603
2.8373186593296644,1.0015028598634135
2.8510255127563777,0.9948772240524392
2.8647323661830915,0.9887489086727688
2.8784392196098048,0.9829555721895967
2.892146073036518,0.9801684721293268
2.9058529264632313,0.9757930310381638
2.9195597798899446,0.9744702777113878
2.933266633316658,0.9730095503589645
2.9469734867433712,0.9756613712452546
2.960680340170085,0.9761762498099182
2.9743871935967983,0.980587056857475
2.9880940470235116,0.9853606605987861
3.001800900450225,0.9908918854967078
3.015507753876938,0.9956505429576772
3.0292146073036514,1.0001415520960015
3.0429214607303647,1.0066524117573812
3.056628314157078,1.0099709520404119
3.0703351675837918,1.013912178508212
3.084042021010505,1.0153661832334713
3.0977488744372184,1.0172103777474455
3.1114557278639317,1.0162979282525206
3.125162581290645,1.0153021055715048
3.1388694347173582,1.013376973881518
3.1525762881440715,1.0096929753545922
3.1662831415707853,1.0049479456300616
3.1799899949974986,1.0014029268270672
3.193696848424212,0.9973865841167396
3.207403701850925,0.9935266077256067
3.2211105552776385,0.9892156233322731
3.2348174087043517,0.9873054387261998
3.248524262131065,0.9856855949598546
3.262231115557779,0.9854325909024922
3.275937968984492,0.9863641205666775
3.2896448224112054,0.9875509544193907
3.3033516758379187,0.989373312486703
3.317058529264632,0.9936024334505457
3.3307653826913453,0.9984050381330946
3.3444722361180586,1.0034191599491318
3.358179089544772,1.008880346370654
3.3718859429714856,1.0131766828322868
3.385592796398199,1.0166398954527418
3.399299649824912,1.0206535097237956
3.4130065032516255,1.0240780579076887
3.4267133566783388,1.0239477313442105
3.440420210105052,1.024191180234663
3.4541270635317654,1.0222769279594173
3.467833916958479,1.0182813809057618
3.4815407703851924,1.0152224116725204
3.4952476238119057,1.0097425954583874
3.508954477238619,1.0034619471068542
3.5226613306653323,0.9969949206590935
3.5363681840920456,0.9918048974407738
3.550075037518759,0.9845186935099585
3.5637818909454726,0.9803165812204168
3.577488744372186,0.9738489285443023
3.591195597798899,0.971747472032719
3.6049024512256125,0.9692119884168959
3.6186093046523258,0.9688676458827663
3.632316158079039,0.9698415922159472
3.6460230115057524,0.973229329867526
3.659729864932466,0.9762424493798033
3.6734367183591794,0.9831217509361706
3.6871435717858927,0.9879359348624689
3.700850425212606,0.9949024153853722
3.7145572786393193,1.0023036064464497
3.7282641320660326,1.0085587324949583
3.741970985492746,1.0139199247729105
3.755677838919459,1.0202586557318327
3.769384692346173,1.0244850443536953
3.783091545772886,1.027150969881099
3.7967983991995995,1.0298483233158038
3.810505252626313,1.0279749455735283
3.824212106053026,1.026969135182738
3.8379189594797394,1.023906219258149
3.8516258129064527,1.0201349592474624
3.8653326663331664,1.0145069592003533
3.8790395197598797,1.0098318992609092
3.892746373186593,1.0032405540954474
3.9064532266133063,0.998490689811934
3.9201600800400196,0.9929192789448809
3.933866933466733,0.988178519224283
3.947573786893446,0.9851250152295055
3.96128064032016,0.982265869274015
3.974987493746873,0.9812865139870199
3.9886943471735865,0.9816894282293185
4.0024012006003,0.9823444628728388
4.016108054027013,0.9850999303868243
4.029814907453726,0.9882645435596799
4.04352176088044,0.992470975587159
4.057228614307153,0.9979498169998999
4.070935467733866,1.0020164844673694
4.08464232116058,1.0047424418172832
4.098349174587293,1.0087184211931748
4.112056028014007,1.0111560014231518
4.12576288144072,1.0138146115132283
4.139469734867434,1.0144178419108798
4.153176588294147,1.013064934413917
4.16688344172086,1.0123395566517723
4.1805902951475735,1.009562604626663
4.194297148574287,1.005688916809595
4.208004002001,1.0013702483321154
4.221710855427713,0.996550740104792
4.235417708854427,0.9915662901218983
4.24912456228114,0.9881676142186108
4.262831415707853,0.9840305052526458
4.276538269134567,0.9800041066241321
4.29024512256128,0.9798856088592639
4.303951975987993,0.9773859858967836
4.317658829414707,0.9787243248606015
4.331365682841421,0.9810673110815038
4.345072536268134,0.9834098964337747
4.358779389694847,0.9886520532177347
4.3724862431215605,0.9928695739686261
4.386193096548274,0.9995702429888557
4.399899949974987,1.005056569588392
4.4136068034017,1.0109532821714555
4.427313656828414,1.017646966576457
4.441020510255127,1.0212901663074199
4.45472736368184,1.0262999239012072
4.468434217108554,1.029462462382159
4.482141070535267,1.0302820291599206
4.49584792396198,1.0309030654272158
4.5095547773886935,1.0277027884202983
4.523261630815408,1.0247274886032876
4.536968484242121,1.0209345723052587
4.550675337668834,1.015327959258021
4.5643821910955475,1.0088689200756413
4.578089044522261,1.0012092639271233
4.591795897948974,0.9949534937194432
4.605502751375687,0.9892122556566509
4.619209604802401,0.9828279300167273
4.632916458229114,0.9771656003543427
4.646623311655827,0.9734665479341957
4.660330165082541,0.9716562245196312
4.674037018509254,0.9712156485655192
4.687743871935967,0.9709592256535905
4.7014507253626805,0.9731258147801287
4.715157578789395,0.9754742463729469
4.728864432216108,0.9809837428024283
4.742571285642821,0.9870161228250931
4.756278139069535,0.9919871173067913
4.769984992496248,0.996856357853815
4.783691845922961,1.0038157579569866
4.7973986993496744,1.0093594946028266
4.811105552776388,1.0136312479264677
4.824812406203101,1.0168332650241232
4.838519259629814,1.0192566984892881
4.852226113056528,1.0202118049621893
4.865932966483241,1.0209113085052217
4.879639819909954,1.0193493678299435
4.8933466733366675,1.0161893220635319
4.907053526763381,1.012278623814515
4.920760380190095,1.0086240476105581
4.934467233616808,1.0045879829616888
4.948174087043522,0.998905525840979
4.961880940470235,0.9950375754274635
4.975587793896948,0.990990046016758
4.9892946473236615,0.9927953004002448
5.003001500750375,0.9860360735832203
5.016708354177088,0.9857489317334808
5.030415207603801,0.9867324262427764
5.044122061030515,0.9876563468428885
5.057828914457228,0.9902433175474049
5.071535767883941,0.9947043611819032
5.0852426213106545,0.9974891835956805
5.098949474737368,1.0020536729309295
5.112656328164081,1.006258617926737
5.126363181590795,1.0110691771472677
5.140070035017509,1.014212218619499
5.153776888444222,1.017644779440814
5.167483741870935,1.0196617114687645
5.1811905952976485,1.0187557054455778
5.194897448724362,1.019481804888581
5.208604302151075,1.0171790584600813
5.222311155577788,1.0152558142487624
5.236018009004502,1.0093564516581415
5.249724862431215,1.0039373018748097
5.263431715857928,0.9997381571597984
5.2771385692846415,0.9932337789065588
5.290845422711355,0.9871571481759369
5.304552276138068,0.9827118765822627
5.318259129564782,0.9775277776469958
5.331965982991496,0.9739693879458698
5.345672836418209,0.9719069788327911
5.359379689844922,0.970439169921133
5.3730865432716355,0.9718276545883255
5.386793396698349,0.9746567723030315
5.400500250125062,0.9769381440027969
5.414207103551775,0.9820881913574813
5.427913956978489,0.9879560528199441
5.441620810405202,0.9946835496973306
5.455327663831915,1.0009321936310516
5.4690345172586285,1.008637267069186
5.482741370685342,1.0138997783914583
5.496448224112055,1.0206299937882268
5.510155077538768,1.025517991769219
5.523861930965483,1.029010571541638
5.537568784392196,1.0303554464302547
5.551275637818909,1.0310164799376957
5.5649824912456225,1.0300169810153295
5.578689344672336,1.0269418426292394
5.592396198099049,1.0228025398012228
5.606103051525762,1.01776380338061
5.619809904952476,1.0112187524993197
5.633516758379189,1.0069133208938814
5.647223611805902,1.0004321664664
5.660930465232616,0.9928381067968988
5.674637318659329,0.9879994811057005
5.688344172086042,0.9833282913505264
5.7020510255127554,0.9809867939444282
5.71575787893947,0.979162800989148
5.729464732366183,0.9734057290097298
5.743171585792896,0.9778655014437057
5.7568784392196095,0.9793380480526941
5.770585292646323,0.9824801380927376
5.784292146073036,0.9854676422916474
5.797998999499749,0.9897830314152515
5.811705852926463,0.9940583380597077
5.825412706353176,0.9997787311549361
5.839119559779889,1.0043949014048228
5.852826413206603,1.0087441446490493
5.866533266633316,1.0115041323322036
5.880240120060029,1.0135720595970699
5.8939469734867425,1.0145930686434135
5.907653826913456,1.0151093083509277
5.92136068034017,1.0126771607894272
5.935067533766883,1.0107822053903766
5.9487743871935965,1.0069405955255653
5.96248124062031,1.0033284219605771
5.976188094047023,0.9993987892114075
5.989894947473736,0.9949886879071176
6.00360180090045,0.9920201074970864
6.017308654327163,0.9870366556087522
6.031015507753876,0.9843925462739372
6.04472236118059,0.9833784390107205
6.058429214607303,0.982413693880705
6.072136068034016,0.9829938849735304
6.0858429214607295,0.9853112069492448
6.099549774887443,0.9884248268842372
6.113256628314156,0.9918660275673501
6.12696348174087,0.9972099815758305
6.1406703351675835,1.002288269774679
6.154377188594297,1.0072097938030857
6.16808404202101,1.013096578045407
6.181790895447723,1.0178374724777788
6.195497748874437,1.0222267589483676
6.20920460230115,1.025816639441694
6.222911455727863,1.0273650788657294
6.236618309154577,1.026918590715778
6.25032516258129,1.0265647146902273
6.264032016008003,1.024328277093022
6.2777388694347165,1.0209496887590914
6.29144572286143,1.014643079598569
6.305152576288143,1.0092138065418128
6.318859429714857,1.0017990823836063
6.3325662831415706,0.9978253522577522
6.346273136568284,0.9890904513545202
6.359979989994997,0.9823141176010112
6.37368684342171,0.9778196220227937
6.387393696848424,0.9731197049757474
6.401100550275137,0.9694910054148127
6.41480740370185,0.968820147630862
6.428514257128564,0.9691278111981791
6.442221110555277,0.9723137240590564
6.45592796398199,0.9744145742053755
6.4696348174087035,0.9785343985277265
6.483341670835417,0.9833295334165849
6.49704852426213,0.9903824797688052
6.510755377688843,0.9966304491171378
6.524462231115558,1.004011684091353
6.538169084542271,1.0085370053915035
6.551875937968984,1.0135598296835229
6.5655827913956974,1.0191871854209373
6.579289644822411,1.0213021454091635
6.592996498249124,1.024731493008008
6.606703351675837,1.025753262638947
6.620410205102551,1.0238409605753678
6.634117058529264,1.0226949124502636
6.647823911955977,1.0179931403365847
6.6615307653826905,1.0140045603259393
6.675237618809404,1.0096701453311292
6.688944472236117,1.0049875701248119
6.70265132566283,0.9990851042720972
6.716358179089544,0.9951046232129303
6.730065032516258,0.991338973914658
6.743771885942971,0.9871333018020914
6.7574787393696845,0.9851812530458455
6.771185592796398,0.9841570968375215
6.784892446223111,0.9846731159079898
6.798599299649824,0.9871208757781507
6.812306153076538,0.9868231455748815
6.826013006503251,0.9917303124309206
6.839719859929964,0.99517584085758
6.8534267133566775,1.000063194524282
6.867133566783391,1.0037359164198316
6.880840420210104,1.0075869473194494
6.894547273636817,1.0116313895072935
6.908254127063531,1.0139955636987688
6.921960980490245,1.0147763960547276
6.935667833916958,1.0162252883159193
6.9493746873436715,1.015408104435462
6.963081540770385,1.0134880192022997
6.976788394197098,1.0105646671703707
6.990495247623811,1.0066370686410908
7.004202101050525,1.0019214949633313
7.017908954477238,0.9966830072473593
7.031615807903951,0.9910164886211965
7.0453226613306645,0.9872781942525801
7.059029514757378,0.9828759062299822
7.072736368184091,0.9785728229442181
7.086443221610804,0.9743419289946271
7.100150075037518,0.9745598668304722
7.113856928464231,0.9741565802229215
7.127563781890945,0.977014023083346
7.1412706353176585,0.9792469552980452
7.154977488744372,0.9839239835373943
7.168684342171085,0.9890981287258145
7.182391195597798,0.99373652573148
7.196098049024512,1.0010322137218333
7.209804902451225,1.0078083355124499
7.223511755877938,1.0130083022996461
7.2372186093046516,1.0196990678107838
7.250925462731365,1.0242570235098847
7.264632316158078,1.0280874998155225
7.278339169584791,1.0305274144623076
7.292046023011505,1.0310078561772533
7.305752876438218,1.0312704075258623
7.319459729864932,1.028609379029958
7.3331665832916455,1.0279472708296329
