time,flux
0.0,0.9849318180057204
0.013706853426713355,0.9870295813563493
0.02741370685342671,0.9919408166373993
0.041120560280140064,0.9948868035580856
0.05482741370685342,1.0001466125306249
0.06853426713356678,1.0054477006364018
0.08224112056028013,1.0111437398801548
0.09594797398699349,1.0174200641562552
0.10965482741370684,1.022557651611704
0.1233616808404202,1.0294149156506014
0.13706853426713356,1.0343574660372643
0.1507753876938469,1.0354798152565539
0.16448224112056026,1.0370392709367635
0.1781890945472736,1.0385150266559642
0.19189594797398699,1.0378393341442673
0.20560280140070034,1.035056869202211
0.21930965482741369,1.0295971249089542
0.23301650825412704,1.023802667334627
0.2467233616808404,1.0139486077680193
0.26043021510755376,1.0083393136185654
0.2741370685342671,0.9971616714841753
0.28784392196098046,0.9872540570727177
0.3015507753876938,0.9787349667882389
0.31525762881440716,0.9714781983900717
0.3289644822411205,0.9637443043616134
0.34267133566783387,0.9571733981099153
0.3563781890945472,0.9508729171012316
0.3700850425212606,0.9469596297097593
0.38379189594797397,0.9469704750302411
0.3974987493746873,0.9438191227198468
0.41120560280140067,0.9475881402986291
0.424912456228114,0.9505414709509243
0.43861930965482737,0.9541563423818648
0.4523261630815407,0.9608031892270319
0.46603301650825407,0.9682385586493454
0.4797398699349674,0.9751678815860662
0.4934467233616808,0.9805953295726504
0.5071535767883941,0.9855300195631803
0.5208604302151075,0.9926007053717004
0.5345672836418208,0.997914029415597
0.5482741370685342,1.0027386295579974
0.5619809904952475,1.0044215481353707
0.5756878439219609,1.0041464664774347
0.5893946973486743,1.0055317539512583
0.6031015507753876,1.0039732970047328
0.616808404202101,1.0016785494811355
0.6305152576288143,0.9999925153512379
0.6442221110555277,0.9940717104759336
0.657928964482241,0.9913294500114395
0.6716358179089544,0.9868816521286481
0.6853426713356677,0.9824049246500063
0.6990495247623811,0.9801447638770266
0.7127563781890944,0.9789257743165588
0.7264632316158078,0.9773072338112695
0.7401700850425212,0.9753237675980267
0.7538769384692345,0.9784651888942938
0.7675837918959479,0.9804241507308278
0.7812906453226612,0.9818300974900818
0.7949974987493746,0.9881783380195098
0.8087043521760879,0.9901512154488494
0.8224112056028013,0.9951915311505617
0.8361180590295146,1.0000741968796327
0.849824912456228,1.0025750703140819
0.8635317658829413,1.005957744095298
0.8772386193096547,1.0085108162328695
0.8909454727363681,1.0069984301902934
0.9046523261630814,1.0085594515954757
0.9183591795897948,1.0085984416275164
0.9320660330165081,1.0019838508334782
0.9457728864432215,0.9986890441235078
0.9594797398699348,0.9935299179783209
0.9731865932966483,0.9867719916833981
0.9868934467233615,0.9774760001509913
1.000600300150075,0.9709706957476338
1.0143071535767882,0.9615808341120681
1.0280140070035018,0.9520648693512347
1.041720860430215,0.9452301793495124
1.0554277138569284,0.9374037136607387
1.0691345672836416,0.9331782787035953
1.0828414207103552,0.929639424778507
1.0965482741370685,0.9278132965203089
1.1102551275637818,0.9254945919997057
1.123961980990495,0.9308791016717453
1.1376688344172086,0.933424377698739
1.1513756878439219,0.9363788902622032
1.1650825412706352,0.9445176153726971
1.1787893946973487,0.9523250719872711
1.192496248124062,0.9592459419221298
1.2062031015507753,0.969306167305973
1.2199099549774886,0.9751941189157459
1.233616808404202,0.9840635176365474
1.2473236618309154,0.9926508545316932
1.2610305152576287,0.9960380879491076
1.274737368684342,1.0030657826522653
1.2884442221110555,1.0052869973045224
1.3021510755377688,1.0079412523488027
1.315857928964482,1.0056207458776698
1.3295647823911956,1.0076562498740242
1.3432716358179089,1.0034643051822167
1.3569784892446222,0.9992378344710776
1.3706853426713355,0.9971329668219048
1.384392196098049,0.9901917646419321
1.3980990495247623,0.983410527250963
1.4118059029514756,0.9796438170115271
1.4255127563781889,0.9751838546241213
1.4392196098049024,0.9710314692906349
1.4529264632316157,0.9674646566977164
1.466633316658329,0.9642128500794769
1.4803401700850425,0.9626899992256382
1.4940470235117558,0.9642388716834723
1.507753876938469,0.9631709412515119
1.5214607303651824,0.9675628877643687
1.5351675837918959,0.9676916620484086
1.5488744372186092,0.97114054706993
1.5625812906453225,0.9761698115248276
1.5762881440720358,0.9788446464002786
1.5899949974987493,0.9812466967799571
1.6037018509254626,0.9822550990885403
1.6174087043521759,0.9848229725494584
1.6311155577788894,0.983843317800114
1.6448224112056027,0.9842171690026236
1.658529264632316,0.9825137381693662
1.6722361180590293,0.9790029090197413
1.6859429714857428,0.9740958673807304
1.699649824912456,0.9672145052633863
1.7133566783391694,0.9646675192624278
1.7270635317658827,0.9554731412775527
1.7407703851925962,0.9498566342362451
1.7544772386193095,0.9453272534671924
1.7681840920460228,0.9370475175328273
1.7818909454727363,0.9351389443192671
1.7955977988994496,0.9334383913351108
1.8093046523261629,0.929304282511033
1.8230115057528762,0.9276637414149302
1.8367183591795897,0.930926576034042
1.850425212606303,0.9330043809972864
1.8641320660330163,0.9358475572700752
1.8778389194597296,0.9437700654916479
1.891545772886443,0.9506613149381485
1.9052526263131564,0.958592744641339
1.9189594797398697,0.9684295550644979
1.9326663331665832,0.9763297104935137
1.9463731865932965,0.985620546273138
1.9600800400200098,0.9969038737916719
1.973786893446723,1.0016056311101915
1.9874937468734366,1.0083179862528207
2.00120060030015,1.012046264223579
2.014907453726863,1.0157000247530803
2.0286143071535765,1.0160179346963005
2.04232116058029,1.0174108894379446
2.0560280140070035,1.0147425760498137
2.069734867433717,1.0100643971629713
2.08344172086043,1.00459300151687
2.0971485742871434,0.9983813738947227
2.1108554277138567,0.9913529155501783
2.12456228114057,0.9818107358565791
2.1382691345672833,0.9773832766974808
2.1519759879939966,0.9704872612079593
2.1656828414207103,0.9642790043732024
2.1793896948474236,0.9595831849350489
2.193096548274137,0.954592907579171
2.20680340170085,0.9513042597193524
2.2205102551275635,0.9513259377620357
2.234217108554277,0.9509350420146598
2.24792396198099,0.950664739374148
2.261630815407704,0.9561145458434122
2.275337668834417,0.959058670799572
2.2890445222611304,0.9598809405575278
2.3027513756878437,0.9654334929705528
2.316458229114557,0.9710940309921372
2.3301650825412703,0.9727471032177163
2.3438719359679836,0.9765911324698859
2.3575787893946973,0.979076894933185
2.3712856428214106,0.9750875284827556
2.384992496248124,0.9790817747886932
2.3986993496748372,0.9790992983374613
2.4124062031015505,0.9763784213644282
2.426113056528264,0.9715212149072048
2.439819909954977,0.9696815953412584
2.4535267633816904,0.9646594097616592
2.467233616808404,0.9603148002406529
2.4809404702351174,0.956730271644321
2.4946473236618307,0.9527876765050787
2.508354177088544,0.951750204910889
2.5220610305152573,0.9506220856014733
2.5357678839419706,0.947015506660535
2.549474737368684,0.9479209602595338
2.5631815907953976,0.9518795394971996
2.576888444222111,0.954465157642332
2.5905952976488242,0.9605988360236559
2.6043021510755375,0.9672289738132583
2.618009004502251,0.9721218681572181
2.631715857928964,0.9806986993773901
2.6454227113556774,0.9897457474769012
2.659129564782391,1.000475751451838
2.6728364182091044,1.0082729942282593
2.6865432716358177,1.0141265125564585
2.700250125062531,1.0191458089833305
2.7139569784892443,1.0230478378849195
2.7276638319159576,1.026833073938792
2.741370685342671,1.0288948278104988
2.755077538769384,1.027717427447937
2.768784392196098,1.0277834133677688
2.7824912456228112,1.023055829486156
2.7961980990495245,1.016648413581886
2.809904952476238,1.012168474765325
2.823611805902951,1.0027864827655983
2.8373186593296644,0.9942924057254998
2.8510255127563777,0.9873435256376587
2.8647323661830915,0.977252775473386
2.8784392196098048,0.9708826711160783
2.892146073036518,0.9615991542039362
2.9058529264632313,0.9568972338072667
2.9195597798899446,0.9535176508407832
2.933266633316658,0.9529076619585873
2.9469734867433712,0.9492101856402844
2.960680340170085,0.9503128282830611
2.9743871935967983,0.9502232322388203
2.9880940470235116,0.9531781484170281
3.001800900450225,0.9584779218350119
3.015507753876938,0.9639997579789055
3.0292146073036514,0.9693953125676709
3.0429214607303647,0.9768263281332121
3.056628314157078,0.9828138870427603
3.0703351675837918,0.9884532009232467
3.084042021010505,0.9921588081692516
3.0977488744372184,0.9948779914927001
3.1114557278639317,0.9992807083868199
3.125162581290645,0.9980974454004707
3.1388694347173582,1.0003703938905397
3.1525762881440715,0.9985956309056082
3.1662831415707853,0.9975506496784932
3.1799899949974986,0.9965994745264553
3.193696848424212,0.9941276322612049
3.207403701850925,0.9898584344574098
3.2211105552776385,0.9851482802378998
3.2348174087043517,0.9821420902459277
3.248524262131065,0.9817224473606255
3.262231115557779,0.9820440667399835
3.275937968984492,0.9826948545154012
3.2896448224112054,0.9814613900790251
3.3033516758379187,0.9870982597875596
3.317058529264632,0.9875289094445678
3.3307653826913453,0.992012817634724
3.3444722361180586,0.9997160896937796
3.358179089544772,1.0067080015359566
3.3718859429714856,1.011987764082775
3.385592796398199,1.0181588000598274
3.399299649824912,1.0253805191477667
3.4130065032516255,1.0311891937894249
3.4267133566783388,1.035714940583247
3.440420210105052,1.0405238522533582
3.4541270635317654,1.0420639362554285
3.467833916958479,1.0417159423498632
3.4815407703851924,1.0390874329771191
3.4952476238119057,1.036200249085351
3.508954477238619,1.0319679472441996
3.5226613306653323,1.0259539888808054
3.5363681840920456,1.018315610554268
3.550075037518759,1.009178944625015
3.5637818909454726,0.998930630862559
3.577488744372186,0.9924693733607717
3.591195597798899,0.9847900501164764
3.6049024512256125,0.9760403547214214
3.6186093046523258,0.9690760150918487
3.632316158079039,0.9647640740684779
3.6460230115057524,0.9610440435400199
3.659729864932466,0.9586457047887699
3.6734367183591794,0.9593633109070628
3.6871435717858927,0.9619435093895901
3.700850425212606,0.9622152498100185
3.7145572786393193,0.9684980576264378
3.7282641320660326,0.973660636722072
3.741970985492746,0.9827617872966204
3.755677838919459,0.9915168871793254
3.769384692346173,0.9978968902066072
3.783091545772886,1.0065254091706322
3.7967983991995995,1.0133662679253603
3.810505252626313,1.0177312022134053
3.824212106053026,1.024646266453219
3.8379189594797394,1.029439655518728
3.8516258129064527,1.0328508974677924
3.8653326663331664,1.034380826023503
3.8790395197598797,1.0340335669106773
3.892746373186593,1.03298814940745
3.9064532266133063,1.030715320758358
3.9201600800400196,1.0285749407302363
3.933866933466733,1.0235843078998754
3.947573786893446,1.0220511399397831
3.96128064032016,1.0192855698167267
3.974987493746873,1.0138728997266957
3.9886943471735865,1.0109221306590845
4.0024012006003,1.0096714161277176
4.016108054027013,1.0093003433334204
4.029814907453726,1.007093797381859
4.04352176088044,1.0128532589874506
4.057228614307153,1.0158494112188283
4.070935467733866,1.0187234426250127
4.08464232116058,1.0197322380583613
4.098349174587293,1.0232864955305114
4.112056028014007,1.030637395603749
4.12576288144072,1.0344095747044175
4.139469734867434,1.03851025466954
4.153176588294147,1.0411546153215128
4.16688344172086,1.044440971359608
4.1805902951475735,1.0441431107727313
4.194297148574287,1.0432835155877067
4.208004002001,1.0439422947666543
4.221710855427713,1.0402819329756088
4.235417708854427,1.0350918015938273
4.24912456228114,1.0283778107929622
4.262831415707853,1.025824928528102
4.276538269134567,1.0140983010772808
4.29024512256128,1.0077687694497808
4.303951975987993,1.000905666431779
4.317658829414707,0.9917899277580005
4.331365682841421,0.9889039662754514
4.345072536268134,0.9820475502770228
4.358779389694847,0.9771092527012495
4.3724862431215605,0.9741665273209618
4.386193096548274,0.9742427033479291
4.399899949974987,0.9753652431855069
4.4136068034017,0.9821023079417638
4.427313656828414,0.9845364930012572
4.441020510255127,0.9893087620486422
4.45472736368184,0.9977959147450924
4.468434217108554,1.0077960442325773
4.482141070535267,1.0138582471511761
4.49584792396198,1.0253587662988677
4.5095547773886935,1.035418102248302
4.523261630815408,1.0403034525621142
4.536968484242121,1.0485519134204446
4.550675337668834,1.0552533013337713
4.5643821910955475,1.0595221031064332
4.578089044522261,1.0622545886406851
4.591795897948974,1.063571173112241
4.605502751375687,1.0641978482221433
4.619209604802401,1.0617523105704971
4.632916458229114,1.0599108090376297
4.646623311655827,1.054868956851491
4.660330165082541,1.0487838938655656
4.674037018509254,1.042907754307224
4.687743871935967,1.0401204308240253
4.7014507253626805,1.0328944035101795
4.715157578789395,1.026950259320768
4.728864432216108,1.0238431780068025
4.742571285642821,1.0204008186095646
4.756278139069535,1.0198982299658905
4.769984992496248,1.018671561752351
4.783691845922961,1.0198201960981013
4.7973986993496744,1.0177320925849032
4.811105552776388,1.0198334016568005
4.824812406203101,1.0232248849847803
4.838519259629814,1.0271369914459438
4.852226113056528,1.0289811491100749
4.865932966483241,1.034405836159439
4.879639819909954,1.0339835852668122
4.8933466733366675,1.0405638681321892
4.907053526763381,1.0403283166887698
4.920760380190095,1.0394532068233382
4.934467233616808,1.0374375926337103
4.948174087043522,1.036363044412472
4.961880940470235,1.0337657282385424
4.975587793896948,1.0307410798521308
4.9892946473236615,1.0244179311534924
5.003001500750375,1.0179334715730164
5.016708354177088,1.0131928106226247
5.030415207603801,1.0069061691166805
5.044122061030515,1.002355854822161
5.057828914457228,0.9970238023263668
5.071535767883941,0.9946689303880845
5.0852426213106545,0.9908922706372846
5.098949474737368,0.987160201590061
5.112656328164081,0.9924652289948205
5.126363181590795,0.9933325197539536
5.140070035017509,0.9959989020473095
5.153776888444222,1.0010510497473606
5.167483741870935,1.009265712910761
5.1811905952976485,1.0190281684992932
5.194897448724362,1.0249582152227539
5.208604302151075,1.036204021310451
5.222311155577788,1.0442179008911363
5.236018009004502,1.0529081575890253
5.249724862431215,1.060470563453452
5.263431715857928,1.0632144747298569
5.2771385692846415,1.0726488830189593
5.290845422711355,1.0765493842643743
5.304552276138068,1.077399047332599
5.318259129564782,1.077386664204076
5.331965982991496,1.0749336414785369
5.345672836418209,1.069219258849083
5.359379689844922,1.0664835369457504
5.3730865432716355,1.0615069240708626
5.386793396698349,1.0519946893118368
5.400500250125062,1.0445703154482076
5.414207103551775,1.037784255890843
5.427913956978489,1.0310880962787794
5.441620810405202,1.0223294740519628
5.455327663831915,1.0156525104478082
5.4690345172586285,1.0130024749849023
5.482741370685342,1.00632157850819
5.496448224112055,1.0046435766370503
5.510155077538768,1.0019499732522827
5.523861930965483,1.0008701275151521
5.537568784392196,1.0065500502069697
5.551275637818909,1.0070840292560026
5.5649824912456225,1.0097017791812708
5.578689344672336,1.0155180173343237
5.592396198099049,1.0193718386602395
5.606103051525762,1.0218796061369353
5.619809904952476,1.02569916479561
5.633516758379189,1.0281946469556307
5.647223611805902,1.0321030962576354
5.660930465232616,1.0321176528730804
5.674637318659329,1.032407603286263
5.688344172086042,1.03147731841146
5.7020510255127554,1.0273572193106562
5.71575787893947,1.0241561441953528
5.729464732366183,1.020981623663335
5.743171585792896,1.0177339421447271
5.7568784392196095,1.012312569541947
5.770585292646323,1.0082138363327955
5.784292146073036,1.0048605144396165
5.797998999499749,1.0029549967949998
5.811705852926463,1.0016915942279205
5.825412706353176,0.9992241962673932
5.839119559779889,1.0009002642040274
5.852826413206603,1.0054883538406498
5.866533266633316,1.0061035278848884
5.880240120060029,1.011333879242972
5.8939469734867425,1.0156493349979798
5.907653826913456,1.025445845712389
5.92136068034017,1.0314555042259712
5.935067533766883,1.038367319868036
5.9487743871935965,1.0451353720934462
5.96248124062031,1.0519027161913548
5.976188094047023,1.058604553861537
5.989894947473736,1.0623245617551504
6.00360180090045,1.066971791773941
6.017308654327163,1.0679314477385164
6.031015507753876,1.0684758669131247
6.04472236118059,1.0698614638982669
6.058429214607303,1.063190007023971
6.072136068034016,1.0575097380017449
6.0858429214607295,1.0510922350637426
6.099549774887443,1.042688995461755
6.113256628314156,1.0334107832483004
6.12696348174087,1.026534530988254
6.1406703351675835,1.0173106544610506
6.154377188594297,1.0068752796601788
6.16808404202101,0.9986676360925973
6.181790895447723,0.9922960203331136
6.195497748874437,0.9848784673238653
6.20920460230115,0.9814361496589786
6.222911455727863,0.9793659813160217
6.236618309154577,0.9767674467322724
6.25032516258129,0.9772659951015542
6.264032016008003,0.981277049896594
6.2777388694347165,0.9847639721466797
6.29144572286143,0.9864816172422533
6.305152576288143,0.9926565086192886
6.318859429714857,0.9986455923398924
6.3325662831415706,1.0036838570924698
6.346273136568284,1.0099122026094158
6.359979989994997,1.0155084222730062
6.37368684342171,1.0184756081414832
6.387393696848424,1.023960005006099
6.401100550275137,1.0230817552178533
6.41480740370185,1.024761592082026
6.428514257128564,1.026039285953035
6.442221110555277,1.0255144190805576
6.45592796398199,1.0213027446876488
6.4696348174087035,1.0176730864571906
6.483341670835417,1.0148595631464212
6.49704852426213,1.0119545913663415
6.510755377688843,1.0076507063627889
6.524462231115558,1.0039339290464182
6.538169084542271,1.0014036362411871
6.551875937968984,1.0000749937801696
6.5655827913956974,0.9989095728142606
6.579289644822411,1.0025687820833198
6.592996498249124,1.0028045505468532
6.606703351675837,1.003605917533021
6.620410205102551,1.0056715783613293
6.634117058529264,1.0127353198051872
6.647823911955977,1.0191504105079563
6.6615307653826905,1.022787942286283
6.675237618809404,1.0299686622242288
6.688944472236117,1.0342746229636686
6.70265132566283,1.0380516622429463
6.716358179089544,1.04317029918884
6.730065032516258,1.041975605408161
6.743771885942971,1.0434715872206872
6.7574787393696845,1.0405488187019758
6.771185592796398,1.0375913857327372
6.784892446223111,1.0331907445407575
6.798599299649824,1.0285748845223734
6.812306153076538,1.0192560828642443
6.826013006503251,1.012825038840195
6.839719859929964,1.00283172549181
6.8534267133566775,0.9945734920651371
6.867133566783391,0.9849372386810534
6.880840420210104,0.9753549172204016
6.894547273636817,0.9684291393640938
6.908254127063531,0.9624605038769752
6.921960980490245,0.9579381098754597
6.935667833916958,0.9543608666983493
6.9493746873436715,0.9492141170591164
6.963081540770385,0.9532098676781567
6.976788394197098,0.9527640443446214
6.990495247623811,0.9570052562547653
7.004202101050525,0.9622431155577432
7.017908954477238,0.9690968537866534
7.031615807903951,0.9758204076028927
7.0453226613306645,0.9848527098901029
7.059029514757378,0.9904157009969735
7.072736368184091,0.9961678929104929
7.086443221610804,1.0054193610536084
7.100150075037518,1.0111632366961383
7.113856928464231,1.0147672569996193
7.127563781890945,1.016621483376307
7.1412706353176585,1.0208092750728537
7.154977488744372,1.021170754034273
7.168684342171085,1.0201002759503053
7.182391195597798,1.0190232394277283
7.196098049024512,1.0151924059096176
7.209804902451225,1.0107170627215742
7.223511755877938,1.0052220049870086
7.2372186093046516,1.0013485736530214
7.250925462731365,0.9985944483243293
7.264632316158078,0.9923840695916184
7.278339169584791,0.9895604593745146
7.292046023011505,0.9855163114421386
7.305752876438218,0.9863456833762634
7.319459729864932,0.983914404358021
7.3331665832916455,0.9870779794506338
7.346873436718359,0.9880958437763364
