time,flux
0.0,0.9878383288748208
0.013706853426713355,0.9920718103571247
0.02741370685342671,1.0001238066931621
0.041120560280140064,1.0079953989376642
0.05482741370685342,1.0147510282699994
0.06853426713356678,1.019752993919669
0.08224112056028013,1.0250979117059966
0.09594797398699349,1.0291960570455654
0.10965482741370684,1.0327943768389931
0.1233616808404202,1.0327313231207642
0.13706853426713356,1.031998873791395
0.1507753876938469,1.029300286719652
0.16448224112056026,1.023624229230086
0.1781890945472736,1.0177774730654647
0.19189594797398699,1.0107699616343757
0.20560280140070034,1.0053576913608968
0.21930965482741369,0.9956290508689
0.23301650825412704,0.9873191911751074
0.2467233616808404,0.9806896485964406
0.26043021510755376,0.974354117082445
0.2741370685342671,0.970968624118157
0.28784392196098046,0.9673042175314496
0.3015507753876938,0.964787018341702
0.31525762881440716,0.9655222302836819
0.3289644822411205,0.9689132875963365
0.34267133566783387,0.972348482920204
0.3563781890945472,0.9767365618172503
0.3700850425212606,0.984553386887838
0.38379189594797397,0.9914674547858938
0.3974987493746873,0.998452336339802
0.41120560280140067,1.0079434706798107
0.424912456228114,1.0142756666923283
0.43861930965482737,1.0215271240452872
0.4523261630815407,1.026302243302599
0.46603301650825407,1.029347076911667
0.4797398699349674,1.032580048599191
0.4934467233616808,1.0308122697356277
0.5071535767883941,1.030840481556081
0.5208604302151075,1.0275265185081015
0.5345672836418208,1.023553049920467
0.5482741370685342,1.0179358066616713
0.5619809904952475,1.0119577014511363
0.5756878439219609,1.0035545247251516
0.5893946973486743,0.9979353026304968
0.6031015507753876,0.9914138300542193
0.616808404202101,0.9849697263792623
0.6305152576288143,0.9805412578152285
0.6442221110555277,0.9768218869815706
0.657928964482241,0.974622899112757
0.6716358179089544,0.9744268420594331
0.6853426713356677,0.9759366443080347
0.6990495247623811,0.9773379930409813
0.7127563781890944,0.9822177470162315
0.7264632316158078,0.9865932674911557
0.7401700850425212,0.9909309430206092
0.7538769384692345,0.9958027744891117
0.7675837918959479,1.0010911566021636
0.7812906453226612,1.00595994662861
0.7949974987493746,1.0110945719990643
0.8087043521760879,1.013650494033195
0.8224112056028013,1.0162654497695727
0.8361180590295146,1.0176005714963692
0.849824912456228,1.01838585952016
0.8635317658829413,1.014832571362334
0.8772386193096547,1.0137237788763727
0.8909454727363681,1.010273202935372
0.9046523261630814,1.0070531970610737
0.9183591795897948,1.003159995341759
0.9320660330165081,0.9978285907037366
0.9457728864432215,0.9951119470312194
0.9594797398699348,0.9919347122238864
0.9731865932966483,0.9898589717696683
0.9868934467233615,0.9881092850461914
1.000600300150075,0.9878294535943279
1.0143071535767882,0.9882456233704578
1.0280140070035018,0.9908660605141331
1.041720860430215,0.9924967131538974
1.0554277138569284,0.9959755066039825
1.0691345672836416,0.9992150022592168
1.0828414207103552,1.0024472396440507
1.0965482741370685,1.005915861138037
1.1102551275637818,1.0096514818955493
1.123961980990495,1.0136330094662718
1.1376688344172086,1.0133593805474947
1.1513756878439219,1.014206964097838
1.1650825412706352,1.0151821206621519
1.1787893946973487,1.0127447092359425
1.192496248124062,1.0115854349165223
1.2062031015507753,1.0070428636885824
1.2199099549774886,1.0030247062719198
1.233616808404202,0.9981297730097147
1.2473236618309154,0.9941935572675016
1.2610305152576287,0.9881514530119736
1.274737368684342,0.9841946924971724
1.2884442221110555,0.9807333753207422
1.3021510755377688,0.9784589254102524
1.315857928964482,0.9776985893994156
1.3295647823911956,0.9799672388741805
1.3432716358179089,0.9793013043343611
1.3569784892446222,0.9830128702860675
1.3706853426713355,0.9869670921420214
1.384392196098049,0.9916812886933586
1.3980990495247623,0.9978279289939297
1.4118059029514756,1.003462803496214
1.4255127563781889,1.0116507838980417
1.4392196098049024,1.0168582680338432
1.4529264632316157,1.0222162415274119
1.466633316658329,1.025409003755021
1.4803401700850425,1.0280685018474418
1.4940470235117558,1.0290063237400793
1.507753876938469,1.029456411234963
1.5214607303651824,1.0286134096062298
1.5351675837918959,1.0226607443592375
1.5488744372186092,1.0184662750017843
1.5625812906453225,1.0122410850706944
1.5762881440720358,1.0053418054076197
1.5899949974987493,0.9942494038158223
1.6037018509254626,0.9898689427986088
1.6174087043521759,0.9817507657950175
1.6311155577788894,0.977123797278701
1.6448224112056027,0.9710531043447894
1.658529264632316,0.9675168925882007
1.6722361180590293,0.9654802264868528
1.6859429714857428,0.967297814534225
1.699649824912456,0.9682972749230623
1.7133566783391694,0.9709941288785735
1.7270635317658827,0.9761908993587748
1.7407703851925962,0.9840848479295861
1.7544772386193095,0.9906939684622422
1.7681840920460228,0.9970186944715611
1.7818909454727363,1.0063585845979004
1.7955977988994496,1.0131951286639373
1.8093046523261629,1.0204219946117412
1.8230115057528762,1.0261079436589737
1.8367183591795897,1.0295590182181602
1.850425212606303,1.0322157721463108
1.8641320660330163,1.0340940940534369
1.8778389194597296,1.0334473446038865
1.891545772886443,1.0311214286182797
1.9052526263131564,1.026282626108716
1.9189594797398697,1.0204032956909423
1.9326663331665832,1.0138482414301075
1.9463731865932965,1.0066503188179732
1.9600800400200098,0.9998374799060424
1.973786893446723,0.9904307726071397
1.9874937468734366,0.984672778534014
2.00120060030015,0.9798019650428006
2.014907453726863,0.9760955824602233
2.0286143071535765,0.9725885472038615
2.04232116058029,0.9701822733531432
2.0560280140070035,0.9716636251200053
2.069734867433717,0.9729561309816964
2.08344172086043,0.9770881318672253
2.0971485742871434,0.9816815110910502
2.1108554277138567,0.986901727288525
2.12456228114057,0.9933763502236811
2.1382691345672833,0.999101168474728
2.1519759879939966,1.0053991012465529
2.1656828414207103,1.009847237141132
2.1793896948474236,1.014571160059541
2.193096548274137,1.01713219262061
2.20680340170085,1.020891306283528
2.2205102551275635,1.0204917442403458
2.234217108554277,1.0197040366605818
2.24792396198099,1.017749722056033
2.261630815407704,1.0146819544069021
2.275337668834417,1.0119981144750523
2.2890445222611304,1.00914411610478
2.3027513756878437,1.0034749080051455
2.316458229114557,0.998715408642701
2.3301650825412703,0.9943531010161522
2.3438719359679836,0.990631451684791
2.3575787893946973,0.9878568412081287
2.3712856428214106,0.9865338213217216
2.384992496248124,0.9878016759126947
2.3986993496748372,0.986360680245436
2.4124062031015505,0.9878373763701573
2.426113056528264,0.9910171272430264
2.439819909954977,0.9930173154093311
2.4535267633816904,0.9982447021808837
2.467233616808404,1.0021975424456664
2.4809404702351174,1.0056311875495236
2.4946473236618307,1.0087911049978486
2.508354177088544,1.0117274109051924
2.5220610305152573,1.0118374509961159
2.5357678839419706,1.0143775294070272
2.549474737368684,1.0130965144793356
2.5631815907953976,1.0118352030568347
2.576888444222111,1.0080141648739032
2.5905952976488242,1.0054828655430914
2.6043021510755375,1.002008400063607
2.618009004502251,0.9969448551393633
2.631715857928964,0.9934917274189521
2.6454227113556774,0.9894089408829023
2.659129564782391,0.9855260803792862
2.6728364182091044,0.9830142512261445
2.6865432716358177,0.9814694535442416
2.700250125062531,0.9802543886762805
2.7139569784892443,0.981411812374471
2.7276638319159576,0.9839097904894953
2.741370685342671,0.9863833736401485
2.755077538769384,0.9919834812220931
2.768784392196098,0.9960372910465773
2.7824912456228112,1.0018331352867234
2.7961980990495245,1.0088563529966506
2.809904952476238,1.0129824192288857
2.823611805902951,1.0193993210824703
2.8373186593296644,1.0216771374970521
2.8510255127563777,1.0250456305801607
2.8647323661830915,1.0269817076364978
2.8784392196098048,1.027410019055185
2.892146073036518,1.026463042415994
2.9058529264632313,1.0237005966726613
2.9195597798899446,1.018446098393685
2.933266633316658,1.013354919842431
2.9469734867433712,1.0058556259584077
2.960680340170085,0.9995156963841536
2.9743871935967983,0.9927330027173149
2.9880940470235116,0.9856304730139326
3.001800900450225,0.9791023312407944
3.015507753876938,0.9735970745501537
3.0292146073036514,0.9698730743402663
3.0429214607303647,0.9664376661559304
3.056628314157078,0.9673040318729057
3.0703351675837918,0.9677537962111055
3.084042021010505,0.971622073944098
3.0977488744372184,0.9763047247377532
3.1114557278639317,0.9816521599064879
3.125162581290645,0.9893986677626768
3.1388694347173582,0.9964059300315543
3.1525762881440715,1.003693205143787
3.1662831415707853,1.0117013915382742
3.1799899949974986,1.0190498888394521
3.193696848424212,1.0264298010883297
3.207403701850925,1.0301296718645527
3.2211105552776385,1.0326150172331325
3.2348174087043517,1.0336245968656212
3.248524262131065,1.0345244702792329
3.262231115557779,1.0323521463318184
3.275937968984492,1.0278034333553163
3.2896448224112054,1.022072129826479
3.3033516758379187,1.015686419246744
3.317058529264632,1.0080732372288261
3.3307653826913453,1.0014541214868045
3.3444722361180586,0.9935486633166911
3.358179089544772,0.9854598769801782
3.3718859429714856,0.9800916573606785
3.385592796398199,0.9743061475268951
3.399299649824912,0.9711517559134332
3.4130065032516255,0.9701917456638398
3.4267133566783388,0.967716152129279
3.440420210105052,0.9704961223492461
3.4541270635317654,0.973762751149963
3.467833916958479,0.9782490220112385
3.4815407703851924,0.9835543884002728
3.4952476238119057,0.9907866774987151
3.508954477238619,0.9952252419950627
3.5226613306653323,1.003352740776744
3.5363681840920456,1.009591939757246
3.550075037518759,1.0140879748480787
3.5637818909454726,1.0180407685212225
3.577488744372186,1.022429289990776
3.591195597798899,1.0238916192995062
3.6049024512256125,1.0244177327338664
3.6186093046523258,1.0223422125442492
3.632316158079039,1.0199164212555185
3.6460230115057524,1.0159601447174411
3.659729864932466,1.0126657105410939
3.6734367183591794,1.006630583758645
3.6871435717858927,1.0016575490501596
3.700850425212606,0.9969870510125718
3.7145572786393193,0.9919817778799714
3.7282641320660326,0.9889657175347025
3.741970985492746,0.9872060816580244
3.755677838919459,0.9844176513260929
3.769384692346173,0.9829899893203731
3.783091545772886,0.9850933470453672
3.7967983991995995,0.9849577241183258
3.810505252626313,0.9882046840928512
3.824212106053026,0.9920629694333813
3.8379189594797394,0.9956724530046008
3.8516258129064527,1.0001261686753025
3.8653326663331664,1.0029132070876268
3.8790395197598797,1.0071447660452781
3.892746373186593,1.009632978262176
3.9064532266133063,1.011227395120998
3.9201600800400196,1.0127755340300155
3.933866933466733,1.0127177707532355
3.947573786893446,1.0093373252152593
3.96128064032016,1.0081982144377697
3.974987493746873,1.005782076746373
3.9886943471735865,1.0022227520806637
4.0024012006003,0.9969919226144682
4.016108054027013,0.9939742320761823
4.029814907453726,0.990791909045831
4.04352176088044,0.988418336471016
4.057228614307153,0.9846901142189173
4.070935467733866,0.9833040282067449
4.08464232116058,0.983575158044724
4.098349174587293,0.9838249082289612
4.112056028014007,0.9868601692840383
4.12576288144072,0.9903256123370272
4.139469734867434,0.9956635398499583
4.153176588294147,0.9990601900818809
4.16688344172086,1.0031390078010045
4.1805902951475735,1.0097328620416237
4.194297148574287,1.0143297852823951
4.208004002001,1.0185695835075583
4.221710855427713,1.0220734370193916
4.235417708854427,1.0241536030680223
4.24912456228114,1.0234549809975575
4.262831415707853,1.0248560743122606
4.276538269134567,1.0226204375900552
4.29024512256128,1.019375657664028
4.303951975987993,1.0137735413192097
4.317658829414707,1.0077562185166904
4.331365682841421,0.9997610300755788
4.345072536268134,0.9953836155540001
4.358779389694847,0.9880312007350092
4.3724862431215605,0.981322015114493
4.386193096548274,0.9770773636816648
4.399899949974987,0.9732525234508457
4.4136068034017,0.9682486240512466
4.427313656828414,0.9686954358089371
4.441020510255127,0.9685393783277875
4.45472736368184,0.9714815873430525
4.468434217108554,0.9743865032751307
4.482141070535267,0.9803855994170348
4.49584792396198,0.9880872428457189
4.5095547773886935,0.995704037910925
4.523261630815408,1.0022269717034016
4.536968484242121,1.010153557014893
4.550675337668834,1.0174437468051898
4.5643821910955475,1.0227517476979437
4.578089044522261,1.0282123963641627
4.591795897948974,1.0317711174127429
4.605502751375687,1.0350017243428609
4.619209604802401,1.0345631066922796
4.632916458229114,1.032537493417488
4.646623311655827,1.027664630827531
4.660330165082541,1.0246517701616316
4.674037018509254,1.0164448666466992
4.687743871935967,1.0097775595774383
4.7014507253626805,1.0017572403552786
4.715157578789395,0.9953127245657875
4.728864432216108,0.98748826278992
4.742571285642821,0.9812699781641085
4.756278139069535,0.9733547229310265
4.769984992496248,0.9698552498897073
4.783691845922961,0.9676593859188878
4.7973986993496744,0.9670865808431401
4.811105552776388,0.9684270620855903
4.824812406203101,0.9715062543732165
4.838519259629814,0.9751489437629747
4.852226113056528,0.9807994982174859
4.865932966483241,0.9859388139233652
4.879639819909954,0.9943556693417493
4.8933466733366675,1.0019190778139364
4.907053526763381,1.0086187574640602
4.920760380190095,1.0155353029244647
4.934467233616808,1.0194603326234013
4.948174087043522,1.0230368460255388
4.961880940470235,1.0263366374033593
4.975587793896948,1.0259992785056102
4.9892946473236615,1.0271330261111513
5.003001500750375,1.0245244871494599
5.016708354177088,1.0210513455191994
5.030415207603801,1.0159222356731945
5.044122061030515,1.0107807172390688
5.057828914457228,1.00578547621621
5.071535767883941,0.9998001693836869
5.0852426213106545,0.9945414513249206
5.098949474737368,0.9903128950862888
5.112656328164081,0.9853988884421884
5.126363181590795,0.9840449207315852
5.140070035017509,0.9812196505104999
5.153776888444222,0.9801925086076796
5.167483741870935,0.9809242985267109
5.1811905952976485,0.9843426494063789
5.194897448724362,0.9872995912882652
5.208604302151075,0.9902696904964025
5.222311155577788,0.9958756575587538
5.236018009004502,0.9984417217113811
5.249724862431215,1.003685252933283
5.263431715857928,1.007732132537503
5.2771385692846415,1.0087848507243862
5.290845422711355,1.012028910290266
5.304552276138068,1.013028756316484
5.318259129564782,1.0128304590707158
5.331965982991496,1.0121266874667683
5.345672836418209,1.0108824707516026
5.359379689844922,1.0074834216117579
5.3730865432716355,1.0040078807455874
5.386793396698349,1.0008236552986278
5.400500250125062,0.9976023154538312
5.414207103551775,0.9916660804216277
5.427913956978489,0.9894353139186572
5.441620810405202,0.9880618900684875
5.455327663831915,0.9875206035307478
5.4690345172586285,0.9861768684299718
5.482741370685342,0.9872534919212486
5.496448224112055,0.9895353729662688
5.510155077538768,0.9931341550914775
5.523861930965483,0.9958861368350402
5.537568784392196,1.0009341135904277
5.551275637818909,1.0046162942502996
5.5649824912456225,1.0100986688601576
5.578689344672336,1.0125103814035747
5.592396198099049,1.0153700461867228
5.606103051525762,1.0204637403767465
5.619809904952476,1.0219909077536256
5.633516758379189,1.021540225412654
5.647223611805902,1.0197134806848152
5.660930465232616,1.017873717032851
5.674637318659329,1.015892310520548
5.688344172086042,1.0085969698480524
5.7020510255127554,1.0035306829302681
5.71575787893947,0.9978349320354932
5.729464732366183,0.9897626004501664
5.743171585792896,0.9852336126121235
5.7568784392196095,0.9803072928616603
5.770585292646323,0.9765621578303046
5.784292146073036,0.9725739669014405
5.797998999499749,0.9706806720223027
5.811705852926463,0.9713667803950988
5.825412706353176,0.973864824247114
5.839119559779889,0.976863254365614
5.852826413206603,0.9799266475344658
5.866533266633316,0.9850236409749579
5.880240120060029,0.9938797251055822
5.8939469734867425,1.0008760315269822
5.907653826913456,1.00763996817344
5.92136068034017,1.0164476170333643
5.935067533766883,1.0213058742386747
5.9487743871935965,1.0275864338232255
5.96248124062031,1.0300252853541267
5.976188094047023,1.0322815013548583
5.989894947473736,1.0331433223052309
6.00360180090045,1.0327394337543139
6.017308654327163,1.0295350889040815
6.031015507753876,1.0257652319330965
6.04472236118059,1.0195379419745003
6.058429214607303,1.010737858734731
6.072136068034016,1.0037553881842816
6.0858429214607295,0.9966781679925667
6.099549774887443,0.9875751652794721
6.113256628314156,0.9818180726533942
6.12696348174087,0.9740644574742852
6.1406703351675835,0.9702411587142652
6.154377188594297,0.9673576595844829
6.16808404202101,0.9662450925828241
6.181790895447723,0.9667399838876559
6.195497748874437,0.9684725081511193
6.20920460230115,0.9734456965652324
6.222911455727863,0.9778869491848869
6.236618309154577,0.9836949224543377
6.25032516258129,0.9937480277469223
6.264032016008003,0.9994617316201192
6.2777388694347165,1.0077712111841008
6.29144572286143,1.014676337603318
6.305152576288143,1.0203965736692553
6.318859429714857,1.0250971904398323
6.3325662831415706,1.0282943762126482
6.346273136568284,1.0304237027976055
6.359979989994997,1.0302273989954598
6.37368684342171,1.0283878765182664
6.387393696848424,1.024756294750398
6.401100550275137,1.0208913187235662
6.41480740370185,1.0152992777095884
6.428514257128564,1.0076331080150744
6.442221110555277,1.003449763600979
6.45592796398199,0.9966694490153925
6.4696348174087035,0.9916128361280532
6.483341670835417,0.9858805020586199
6.49704852426213,0.9830105741647815
6.510755377688843,0.9796418452614705
6.524462231115558,0.9788198683152038
6.538169084542271,0.9791870043632013
6.551875937968984,0.9791853854737876
6.5655827913956974,0.9815986957309231
6.579289644822411,0.9861138337153048
6.592996498249124,0.9882063247267868
6.606703351675837,0.9946216091480016
6.620410205102551,0.9996642664349062
6.634117058529264,1.0034114047823062
6.647823911955977,1.0082147824442076
6.6615307653826905,1.0112273542316421
6.675237618809404,1.0141705709068491
6.688944472236117,1.0148770560224012
6.70265132566283,1.0144833371127673
6.716358179089544,1.0133154269512794
6.730065032516258,1.010714289505587
6.743771885942971,1.0084398156925656
6.7574787393696845,1.0054978056859307
6.771185592796398,1.001766783855662
6.784892446223111,0.9976640965942208
6.798599299649824,0.9936827760754515
6.812306153076538,0.9916629085826568
6.826013006503251,0.9882757402045269
6.839719859929964,0.9877038530266999
6.8534267133566775,0.9877753695794116
6.867133566783391,0.9884369734562363
6.880840420210104,0.9901251312005035
6.894547273636817,0.9931915148791858
6.908254127063531,0.9960861023912115
6.921960980490245,0.9990361274653792
6.935667833916958,1.0039963763647022
6.9493746873436715,1.009174800258809
6.963081540770385,1.0119637595970234
6.976788394197098,1.0159488599433006
6.990495247623811,1.0171489076428895
7.004202101050525,1.0174414276441923
7.017908954477238,1.0171835007291792
7.031615807903951,1.0160350535822742
7.0453226613306645,1.0137343088561523
7.059029514757378,1.0099297767859496
7.072736368184091,1.0068471963435974
7.086443221610804,1.0010394278953545
7.100150075037518,0.9941147288866812
7.113856928464231,0.9877774368197427
7.127563781890945,0.9838446563504256
7.1412706353176585,0.980223780769648
7.154977488744372,0.9760775694181465
7.168684342171085,0.9738242485484806
7.182391195597798,0.9752973450158864
7.196098049024512,0.9752525109017628
7.209804902451225,0.9776965536284966
7.223511755877938,0.9804658597160599
7.2372186093046516,0.986913840447725
7.250925462731365,0.9929725659688
7.264632316158078,0.9988014957658506
7.278339169584791,1.0070123032239635
7.292046023011505,1.0139114858156133
7.305752876438218,1.017945095970661
7.319459729864932,1.0251111375887167
7.3331665832916455,1.0280568900538212
7.346873436718359,1.0321378912932275
