time,flux
0.0,0.9946112576186862
0.013706853426713355,0.9900396133908138
0.02741370685342671,0.9860428621396904
0.041120560280140064,0.9819527487603771
0.05482741370685342,0.9792267958374294
0.06853426713356678,0.9762107621690034
0.08224112056028013,0.9764015350955757
0.09594797398699349,0.9778486296766984
0.10965482741370684,0.9795313369482721
0.1233616808404202,0.9837501199973162
0.13706853426713356,0.9889968336612643
0.1507753876938469,0.9940377951113408
0.16448224112056026,1.0007811442282533
0.1781890945472736,1.0050722303650115
0.19189594797398699,1.010127710644743
0.20560280140070034,1.0159409679211882
0.21930965482741369,1.0192885203325972
0.23301650825412704,1.0222980656115364
0.2467233616808404,1.0233161822586272
0.26043021510755376,1.0259316857027874
0.2741370685342671,1.0223644304872062
0.28784392196098046,1.0199056240152622
0.3015507753876938,1.0156802835665228
0.31525762881440716,1.0100799353393415
0.3289644822411205,1.0044264432988828
0.34267133566783387,1.001093401232955
0.3563781890945472,0.99404692458608
0.3700850425212606,0.9880823240315109
0.38379189594797397,0.9833223574578921
0.3974987493746873,0.981623224482246
0.41120560280140067,0.976723838676965
0.424912456228114,0.9784559798320408
0.43861930965482737,0.9782443914865653
0.4523261630815407,0.9766327731642218
0.46603301650825407,0.9820539808804006
0.4797398699349674,0.9852249717539809
0.4934467233616808,0.9895681667006663
0.5071535767883941,0.9956179575682723
0.5208604302151075,0.9998437159654456
0.5345672836418208,1.0069390309266555
0.5482741370685342,1.0126784907057444
0.5619809904952475,1.015672147334323
0.5756878439219609,1.019300178888342
0.5893946973486743,1.0226756236627557
0.6031015507753876,1.0248252572028727
0.616808404202101,1.0234168126947847
0.6305152576288143,1.022408430577956
0.6442221110555277,1.018183887089064
0.657928964482241,1.01478259747965
0.6716358179089544,1.010385000849571
0.6853426713356677,1.005549043284603
0.6990495247623811,0.9978297607123818
0.7127563781890944,0.9932545399533369
0.7264632316158078,0.9871029325952875
0.7401700850425212,0.9840028023600106
0.7538769384692345,0.9796196223266888
0.7675837918959479,0.9778837939639244
0.7812906453226612,0.9763745883345395
0.7949974987493746,0.9772743258291152
0.8087043521760879,0.9780426670252819
0.8224112056028013,0.9837138196139149
0.8361180590295146,0.9868395576294202
0.849824912456228,0.9916727217663918
0.8635317658829413,0.9949823083791232
0.8772386193096547,1.000541366292057
0.8909454727363681,1.0062581705753872
0.9046523261630814,1.012307498220975
0.9183591795897948,1.017078243183494
0.9320660330165081,1.020232092483882
0.9457728864432215,1.0223526546139714
0.9594797398699348,1.0228251243651365
0.9731865932966483,1.02244175507831
0.9868934467233615,1.0204221047381636
1.000600300150075,1.0169565918502463
1.0143071535767882,1.0138823478472607
1.0280140070035018,1.0087339840220158
1.041720860430215,1.0029334527863087
1.0554277138569284,0.9982873685192024
1.0691345672836416,0.9909439470390428
1.0828414207103552,0.9864557940969229
1.0965482741370685,0.9843435581163483
1.1102551275637818,0.9789747618985087
1.123961980990495,0.9779627855766597
1.1376688344172086,0.9765379666835571
1.1513756878439219,0.977869036460953
1.1650825412706352,0.9785170523636636
1.1787893946973487,0.9818154266556864
1.192496248124062,0.9863797252862367
1.2062031015507753,0.9917576440834079
1.2199099549774886,0.9969285114044136
1.233616808404202,1.0036908614815694
1.2473236618309154,1.008159231953997
1.2610305152576287,1.0141038693492908
1.274737368684342,1.0183906223921049
1.2884442221110555,1.0228337270537624
1.3021510755377688,1.0230692783644477
1.315857928964482,1.0220911239782526
1.3295647823911956,1.0230952873422317
1.3432716358179089,1.019974576330403
1.3569784892446222,1.0185722760970422
1.3706853426713355,1.0132949306320722
1.384392196098049,1.0075980947100105
1.3980990495247623,1.0033990985112426
1.4118059029514756,0.9949839042075704
1.4255127563781889,0.9916212212341586
1.4392196098049024,0.9864646522407334
1.4529264632316157,0.9814880131744439
1.466633316658329,0.978955580482474
1.4803401700850425,0.9759203816199304
1.4940470235117558,0.976904032833668
1.507753876938469,0.975662401726832
1.5214607303651824,0.979629897478308
1.5351675837918959,0.9819624423315826
1.5488744372186092,0.9891240137692369
1.5625812906453225,0.9925632754861268
1.5762881440720358,0.9971289932344221
1.5899949974987493,1.0043642222733622
1.6037018509254626,1.0084626743376235
1.6174087043521759,1.0145886699656423
1.6311155577788894,1.0213622399889002
1.6448224112056027,1.0215186077250733
1.658529264632316,1.0242255119944514
1.6722361180590293,1.0235012909174324
1.6859429714857428,1.0219879075864633
1.699649824912456,1.020576489648119
1.7133566783391694,1.015427162557874
1.7270635317658827,1.0118592488148768
1.7407703851925962,1.0079462353559445
1.7544772386193095,1.0029163648722002
1.7681840920460228,0.9945821076359901
1.7818909454727363,0.9896142100564131
1.7955977988994496,0.9840477187648914
1.8093046523261629,0.9822349278979164
1.8230115057528762,0.9792129332885192
1.8367183591795897,0.9773448716431777
1.850425212606303,0.9773426769554856
1.8641320660330163,0.9785718402093739
1.8778389194597296,0.97855745267405
1.891545772886443,0.981972998646402
1.9052526263131564,0.9887102603905463
1.9189594797398697,0.9945519716807425
1.9326663331665832,0.9985141627194425
1.9463731865932965,1.0046746821548065
1.9600800400200098,1.0098513460588407
1.973786893446723,1.0162072012671355
1.9874937468734366,1.019620227898869
2.00120060030015,1.021463016021811
2.014907453726863,1.0247886690927936
2.0286143071535765,1.020851498691194
2.04232116058029,1.0217278455649876
2.0560280140070035,1.0190525137630257
2.069734867433717,1.0173903831452646
2.08344172086043,1.0112414749261724
2.0971485742871434,1.0052500719028674
2.1108554277138567,0.9998452580102869
2.12456228114057,0.995282359531869
2.1382691345672833,0.9889154118011724
2.1519759879939966,0.9844153906086773
2.1656828414207103,0.9798413126378444
2.1793896948474236,0.9780956409526149
2.193096548274137,0.9763083716370212
2.20680340170085,0.9770125923031989
2.2205102551275635,0.9783502866702914
2.234217108554277,0.9808866355300234
2.24792396198099,0.9845878829245073
2.261630815407704,0.9890689060817651
2.275337668834417,0.995105079092993
2.2890445222611304,1.0007124845679132
2.3027513756878437,1.0057388856889735
2.316458229114557,1.009956932145759
2.3301650825412703,1.016001308092766
2.3438719359679836,1.0209178639118512
2.3575787893946973,1.0200939331538044
2.3712856428214106,1.0247530809869512
2.384992496248124,1.0208580150409372
2.3986993496748372,1.0218164031066894
2.4124062031015505,1.01947661941809
2.426113056528264,1.0152474790122012
2.439819909954977,1.0095620486128447
2.4535267633816904,1.004446081509468
2.467233616808404,0.9986808022233155
2.4809404702351174,0.9928472103614566
2.4946473236618307,0.9875885089613933
2.508354177088544,0.9837615017435049
2.5220610305152573,0.9816148905568781
2.5357678839419706,0.977647329873446
2.549474737368684,0.97585995351334
2.5631815907953976,0.9763724107790402
2.576888444222111,0.9791989257328245
2.5905952976488242,0.9809476820090056
2.6043021510755375,0.9855196628453592
2.618009004502251,0.9895348835975881
2.631715857928964,0.9950873457830272
2.6454227113556774,1.0022387166447781
2.659129564782391,1.0057514057124244
2.6728364182091044,1.0116090059031724
2.6865432716358177,1.0167907382590358
2.700250125062531,1.0194648887634197
2.7139569784892443,1.0226655722552533
2.7276638319159576,1.0236558551667319
2.741370685342671,1.0215650498477453
2.755077538769384,1.021240605614598
2.768784392196098,1.0182850153433018
2.7824912456228112,1.0149167092495908
2.7961980990495245,1.0094218120522966
2.809904952476238,1.004018900760897
2.823611805902951,0.9976948519883135
2.8373186593296644,0.9909998200244878
2.8510255127563777,0.9870872053590507
2.8647323661830915,0.9816424774729758
2.8784392196098048,0.9795913736193136
2.892146073036518,0.9771581167147997
2.9058529264632313,0.9760949894960673
2.9195597798899446,0.97638236619424
2.933266633316658,0.9792384119849803
2.9469734867433712,0.9829129993424544
2.960680340170085,0.9855847993991103
2.9743871935967983,0.9919655284637428
2.9880940470235116,0.9953991478760003
3.001800900450225,1.0027533662498698
3.015507753876938,1.0022120604851046
3.0292146073036514,1.0141055140571469
3.0429214607303647,1.0166452657383336
3.056628314157078,1.0194802092588628
3.0703351675837918,1.0228469941983616
3.084042021010505,1.023066321028237
3.0977488744372184,1.0236587810059694
3.1114557278639317,1.0209380121266678
3.125162581290645,1.0196709534298234
3.1388694347173582,1.0126568114776917
3.1525762881440715,1.0090426311498135
3.1662831415707853,1.002855348978482
3.1799899949974986,0.9966263766698368
3.193696848424212,0.9929926504126897
3.207403701850925,0.9866684428394592
3.2211105552776385,0.9829064610600381
3.2348174087043517,0.9779252992981416
3.248524262131065,0.9759657427142255
3.262231115557779,0.976066555214468
3.275937968984492,0.9772260320875739
3.2896448224112054,0.9787286113052088
3.3033516758379187,0.9829150057766001
3.317058529264632,0.9864042833171554
3.3307653826913453,0.9916431328487997
3.3444722361180586,0.997743623208205
3.358179089544772,1.002516246435099
3.3718859429714856,1.008335220470569
3.385592796398199,1.0145728656415598
3.399299649824912,1.0178749880775233
3.4130065032516255,1.021778751918804
3.4267133566783388,1.02342092858779
3.440420210105052,1.0235710935517737
3.4541270635317654,1.0221448311890455
3.467833916958479,1.0203275046198137
3.4815407703851924,1.0163404884488623
3.4952476238119057,1.012542483348662
3.508954477238619,1.0075221157270893
3.5226613306653323,1.0021672560268189
3.5363681840920456,0.9972376969018331
3.550075037518759,0.9905869677255766
3.5637818909454726,0.9867372459358936
3.577488744372186,0.9831331218682148
3.591195597798899,0.9781709814869273
3.6049024512256125,0.9766231999218797
3.6186093046523258,0.9760549854207826
3.632316158079039,0.9777382884332235
3.6460230115057524,0.980650527499339
3.659729864932466,0.9836719144572805
3.6734367183591794,0.9883129232471856
3.6871435717858927,0.9935971666686841
3.700850425212606,0.9979988405808994
3.7145572786393193,1.0028459562503904
3.7282641320660326,1.0085749264038741
3.741970985492746,1.0134731036677564
3.755677838919459,1.0173088773463381
3.769384692346173,1.0198500230767606
3.783091545772886,1.0217272364975063
3.7967983991995995,1.0241993647881782
3.810505252626313,1.0235832800459137
3.824212106053026,1.0200208362167646
3.8379189594797394,1.0173375030300065
3.8516258129064527,1.0127612231692436
3.8653326663331664,1.0059414844616958
3.8790395197598797,1.0020758178423004
3.892746373186593,0.9950642356677593
3.9064532266133063,0.9896710399511011
3.9201600800400196,0.9846685162688457
3.933866933466733,0.980602271627109
3.947573786893446,0.9780036495163817
3.96128064032016,0.9790843007590886
3.974987493746873,0.9760564181830944
3.9886943471735865,0.9779700268874759
4.0024012006003,0.9786409319662518
4.016108054027013,0.9852196752219311
4.029814907453726,0.987430114665609
4.04352176088044,0.9938484823396996
4.057228614307153,1.0001289898165848
4.070935467733866,1.0043844100195713
4.08464232116058,1.012037038011641
4.098349174587293,1.015303135383622
4.112056028014007,1.0203315777329691
4.12576288144072,1.0213349437749752
4.139469734867434,1.0233013018096595
4.153176588294147,1.0227564579632078
4.16688344172086,1.0231147353102088
4.1805902951475735,1.0193947356770279
4.194297148574287,1.0158347066452311
4.208004002001,1.0131837225118594
4.221710855427713,1.0068261847225743
4.235417708854427,0.9991246746549303
4.24912456228114,0.9954524955644547
4.262831415707853,0.9893603654275773
4.276538269134567,0.9840015103494621
4.29024512256128,0.9819358191916222
4.303951975987993,0.977590737655958
4.317658829414707,0.9766381831517753
4.331365682841421,0.9779597349109076
4.345072536268134,0.9789908331298616
4.358779389694847,0.9804365725446923
4.3724862431215605,0.9838014835380203
4.386193096548274,0.9891605589250633
4.399899949974987,0.9945212971610007
4.4136068034017,1.0001628403108638
4.427313656828414,1.0062521169405678
4.441020510255127,1.0113910317062407
4.45472736368184,1.0148777024756666
4.468434217108554,1.019864811583746
4.482141070535267,1.022788373787216
4.49584792396198,1.0226618321223686
4.5095547773886935,1.0235060025146003
4.523261630815408,1.0212178630798026
4.536968484242121,1.0200437669628368
4.550675337668834,1.0159706437791665
4.5643821910955475,1.0089916837281443
4.578089044522261,1.004927671975113
4.591795897948974,1.0000437279021763
4.605502751375687,0.9951098250462923
4.619209604802401,0.9864743587423701
4.632916458229114,0.9830070279029398
4.646623311655827,0.9798186622506767
4.660330165082541,0.9782665211025185
4.674037018509254,0.9769302995658014
4.687743871935967,0.9767309796163129
4.7014507253626805,0.9801269304724886
4.715157578789395,0.9813631675783836
4.728864432216108,0.9845411780351807
4.742571285642821,0.9907688436208164
4.756278139069535,0.9965640955854818
4.769984992496248,1.0015940355367183
4.783691845922961,1.0073434468051528
4.7973986993496744,1.012251172108081
4.811105552776388,1.0169403338652798
4.824812406203101,1.0203948067641453
4.838519259629814,1.0222342804185371
4.852226113056528,1.0224492303090684
4.865932966483241,1.0288902801801576
4.879639819909954,1.0208964490556158
4.8933466733366675,1.0184013578927347
4.907053526763381,1.0142887427840739
4.920760380190095,1.0105163186962487
4.934467233616808,1.0054041644838267
4.948174087043522,0.9976110559713474
4.961880940470235,0.9919174995228
4.975587793896948,0.9872238145574034
4.9892946473236615,0.9834922806938179
5.003001500750375,0.9808126123610109
5.016708354177088,0.9766292120863544
5.030415207603801,0.9764533388306886
5.044122061030515,0.9782994683913907
5.057828914457228,0.9784793206957998
5.071535767883941,0.9816951706095507
5.0852426213106545,0.9863074392031314
5.098949474737368,0.9898775606236512
5.112656328164081,0.9974303757736275
5.126363181590795,1.0024000341955848
5.140070035017509,1.009911718363458
5.153776888444222,1.011827134162159
5.167483741870935,1.016202835559531
5.1811905952976485,1.0219528515499283
5.194897448724362,1.0234270830574397
5.208604302151075,1.0231549622557492
5.222311155577788,1.0229308341373862
5.236018009004502,1.0188547156423777
5.249724862431215,1.017681954195324
5.263431715857928,1.0142252877881914
5.2771385692846415,1.0096487113811494
5.290845422711355,1.0031975748502926
5.304552276138068,0.9968637675545042
5.318259129564782,0.9936439539535927
5.331965982991496,0.9869848935517345
5.345672836418209,0.9814121441857805
5.359379689844922,0.9786323607127436
5.3730865432716355,0.9760973730977623
5.386793396698349,0.9771112752244864
5.400500250125062,0.9774966472406118
5.414207103551775,0.9798809184762076
5.427913956978489,0.9824042876551866
5.441620810405202,0.9869518974633007
5.455327663831915,0.9912539429389512
5.4690345172586285,0.9974646248211467
5.482741370685342,1.004413098277379
5.496448224112055,1.0090434305149332
5.510155077538768,1.0137678151022917
5.523861930965483,1.0170878919874005
5.537568784392196,1.0212162039366142
5.551275637818909,1.022788039398939
5.5649824912456225,1.0225860017366382
5.578689344672336,1.022528194355523
5.592396198099049,1.0202711367897954
5.606103051525762,1.0173623621122272
5.619809904952476,1.0128419032713738
5.633516758379189,1.0085753954653516
5.647223611805902,1.000852502118899
5.660930465232616,0.996317416462538
5.674637318659329,0.9888389024419855
5.688344172086042,0.9851195043919794
5.7020510255127554,0.9818014534404483
5.71575787893947,0.9787203092051024
5.729464732366183,0.976755094702708
5.743171585792896,0.9773974791330552
5.7568784392196095,0.9760877606112615
5.770585292646323,0.9818745932565972
5.784292146073036,0.9845306787768945
5.797998999499749,0.9888770589345878
5.811705852926463,0.993773760183413
5.825412706353176,1.0002650112134883
5.839119559779889,1.0057295173449223
5.852826413206603,1.0106348447107176
5.866533266633316,1.0161003652830063
5.880240120060029,1.0199733969021711
5.8939469734867425,1.0216352765856498
5.907653826913456,1.0223881917903106
5.92136068034017,1.0233880765701677
5.935067533766883,1.0212483682843545
5.9487743871935965,1.0183032827053653
5.96248124062031,1.0177602730816444
5.976188094047023,1.0108439441857078
5.989894947473736,1.0050884482822846
6.00360180090045,1.000638383048629
6.017308654327163,0.9935816144085813
6.031015507753876,0.9889778688813335
6.04472236118059,0.9835751007811043
6.058429214607303,0.9802526761564858
6.072136068034016,0.9775721147167591
6.0858429214607295,0.9761512420477064
6.099549774887443,0.9746066881785768
6.113256628314156,0.9773329211772064
6.12696348174087,0.9803214797371466
6.1406703351675835,0.9837525897575857
6.154377188594297,0.9899585772815598
6.16808404202101,0.9931811292955625
6.181790895447723,0.9990229574699507
6.195497748874437,1.0045511211106157
6.20920460230115,1.0118656966266761
6.222911455727863,1.01297208681105
6.236618309154577,1.019385221021497
6.25032516258129,1.0222501172430323
6.264032016008003,1.0241311677886762
6.2777388694347165,1.02474630304177
6.29144572286143,1.0244870178810233
6.305152576288143,1.0193859050571943
6.318859429714857,1.0163934033606796
6.3325662831415706,1.0109433222784088
6.346273136568284,1.005669853638846
6.359979989994997,0.9999933549794677
6.37368684342171,0.9945438431106864
6.387393696848424,0.9886187370506612
6.401100550275137,0.9840131795702944
6.41480740370185,0.9810765388778122
6.428514257128564,0.9768540612893343
6.442221110555277,0.9767722145651477
6.45592796398199,0.9768777001408552
6.4696348174087035,0.9787736837428452
6.483341670835417,0.9795887812699994
6.49704852426213,0.9854578470537227
6.510755377688843,0.9895904652159562
6.524462231115558,0.9957077411983046
6.538169084542271,1.0003193602317697
6.551875937968984,1.0069177536551337
6.5655827913956974,1.0128959271573656
6.579289644822411,1.016473638306644
6.592996498249124,1.0201922855314618
6.606703351675837,1.0220488545018627
6.620410205102551,1.0242204322205997
6.634117058529264,1.0235476304764626
6.647823911955977,1.0218317494908107
6.6615307653826905,1.0188465207853021
6.675237618809404,1.0145639324417803
6.688944472236117,1.0093405431691567
6.70265132566283,1.0033035824332468
6.716358179089544,0.999453599483024
6.730065032516258,0.9933801941066176
6.743771885942971,0.987545072861648
6.7574787393696845,0.9841359948274426
6.771185592796398,0.9805174765019848
6.784892446223111,0.976304427050155
6.798599299649824,0.9757336382200323
6.812306153076538,0.9773722326360227
6.826013006503251,0.9797316023122186
6.839719859929964,0.983827283016643
6.8534267133566775,0.9854742941687338
6.867133566783391,0.9899383136925687
6.880840420210104,0.9958920803220088
6.894547273636817,1.0029403648152113
6.908254127063531,1.0085670024152738
6.921960980490245,1.0123926774793504
6.935667833916958,1.016880512646069
6.9493746873436715,1.020841114630293
6.963081540770385,1.0218000824838063
6.976788394197098,1.0240378173135538
6.990495247623811,1.0234877651580254
7.004202101050525,1.0215691371522537
7.017908954477238,1.017863510549489
7.031615807903951,1.0142370240656402
7.0453226613306645,1.0085798588168926
7.059029514757378,1.001999175467
7.072736368184091,0.9979014017519705
7.086443221610804,0.9932189414393363
7.100150075037518,0.9864311396033612
7.113856928464231,0.9839221252941517
7.127563781890945,0.9799289807384017
7.1412706353176585,0.9782151257870229
7.154977488744372,0.9755440165898763
7.168684342171085,0.9763676085332798
7.182391195597798,0.980849015279614
7.196098049024512,0.9833678295243026
7.209804902451225,0.9862489834160636
7.223511755877938,0.9932139186804207
7.2372186093046516,0.996643273466154
7.250925462731365,1.0025680995657942
7.264632316158078,1.0092545731790776
7.278339169584791,1.014846760144822
7.292046023011505,1.0187478179166305
7.305752876438218,1.0211556951382619
7.319459729864932,1.0220819810028736
7.3331665832916455,1.0229660207796132
7.346873436718359,1.02245912463413
