time,flux
0.0,1.0001705178864837
0.013706853426713355,0.9934870283193205
0.02741370685342671,0.986205768848797
0.041120560280140064,0.9795169839307846
0.05482741370685342,0.973995258851482
0.06853426713356678,0.9691971524993234
0.08224112056028013,0.9662403118972863
0.09594797398699349,0.9635322662293135
0.10965482741370684,0.9620128034731917
0.1233616808404202,0.9611040155659146
0.13706853426713356,0.9616051131625949
0.1507753876938469,0.9652995484647653
0.16448224112056026,0.9684016084812492
0.1781890945472736,0.975478507270055
0.19189594797398699,0.9786002250634481
0.20560280140070034,0.9835908310473791
0.21930965482741369,0.9915917261624578
0.23301650825412704,0.9981307118023469
0.2467233616808404,1.0059051289184613
0.26043021510755376,1.0130732093713852
0.2741370685342671,1.0209404481309698
0.28784392196098046,1.0251904912124954
0.3015507753876938,1.0304156566495295
0.31525762881440716,1.0377306032232547
0.3289644822411205,1.0407187401915536
0.34267133566783387,1.044014947051004
0.3563781890945472,1.0435738440757438
0.3700850425212606,1.0459373544755617
0.38379189594797397,1.0440814480008116
0.3974987493746873,1.0427787761186857
0.41120560280140067,1.0413504445785868
0.424912456228114,1.0363501336822158
0.43861930965482737,1.035203277954532
0.4523261630815407,1.0315046783836317
0.46603301650825407,1.025876587129668
0.4797398699349674,1.0225544136990836
0.4934467233616808,1.0180371776651953
0.5071535767883941,1.0160417727278996
0.5208604302151075,1.0099017566403932
0.5345672836418208,1.0073098069894606
0.5482741370685342,1.0058085096973626
0.5619809904952475,1.0036660082911533
0.5756878439219609,1.001354573021342
0.5893946973486743,1.0002002705315958
0.6031015507753876,1.0000017529355314
0.616808404202101,1.0010147877528046
0.6305152576288143,1.0011969988024865
0.6442221110555277,1.0011419533635701
0.657928964482241,1.0048064265733765
0.6716358179089544,1.0050759735897423
0.6853426713356677,1.0062081131859242
0.6990495247623811,1.0062905850962596
0.7127563781890944,1.0072190427065497
0.7264632316158078,1.0084702947986417
0.7401700850425212,1.0077872977115256
0.7538769384692345,1.0063594236190458
0.7675837918959479,1.006186537842239
0.7812906453226612,1.0043085462328185
0.7949974987493746,1.0022509775494344
0.8087043521760879,1.0033085483222093
0.8224112056028013,0.9996046599626086
0.8361180590295146,0.9990068649522211
0.849824912456228,0.997181831135927
0.8635317658829413,0.9971300080989741
0.8772386193096547,0.9955467254448657
0.8909454727363681,0.9946937638344235
0.9046523261630814,0.9958261677880457
0.9183591795897948,0.9987286212344529
0.9320660330165081,0.9979829830882497
0.9457728864432215,1.0006860917486886
0.9594797398699348,1.0041847269559112
0.9731865932966483,1.0074196973179885
0.9868934467233615,1.0132660397174573
1.000600300150075,1.0175185030619744
1.0143071535767882,1.0237439432558189
1.0280140070035018,1.0291022177333673
1.041720860430215,1.0350345865306894
1.0554277138569284,1.0395787114779984
1.0691345672836416,1.0443786796099561
1.0828414207103552,1.0483577195904838
1.0965482741370685,1.0522758089726505
1.1102551275637818,1.05321282552088
1.123961980990495,1.0556282874955978
1.1376688344172086,1.0556184920647413
1.1513756878439219,1.055977701097347
1.1650825412706352,1.0533114378986097
1.1787893946973487,1.050382141229095
1.192496248124062,1.0453026632783333
1.2062031015507753,1.0396543200249566
1.2199099549774886,1.0338081300615563
1.233616808404202,1.0279072627604304
1.2473236618309154,1.0214996300368708
1.2610305152576287,1.013735388819688
1.274737368684342,1.0075427320086936
1.2884442221110555,1.0004714497588008
1.3021510755377688,0.9934493979439184
1.315857928964482,0.987569278100917
1.3295647823911956,0.9827922540872225
1.3432716358179089,0.9775784516749009
1.3569784892446222,0.9737646197879595
1.3706853426713355,0.9717238880763827
1.384392196098049,0.9731309335120586
1.3980990495247623,0.9736490179132631
1.4118059029514756,0.9765434517212315
1.4255127563781889,0.9783593690516353
1.4392196098049024,0.9825909803050723
1.4529264632316157,0.9888770976202474
1.466633316658329,0.9944858613097817
1.4803401700850425,1.0009900310463928
1.4940470235117558,1.0060099850740565
1.507753876938469,1.0128745864245259
1.5214607303651824,1.0186235692129377
1.5351675837918959,1.0248593026301815
1.5488744372186092,1.0301378713266736
1.5625812906453225,1.0353090431570693
1.5762881440720358,1.038429172417158
1.5899949974987493,1.0453829917009203
1.6037018509254626,1.0442980737894065
1.6174087043521759,1.0457727151946252
1.6311155577788894,1.0461904267940276
1.6448224112056027,1.0443193058798625
1.658529264632316,1.045003938815178
1.6722361180590293,1.0422132181620614
1.6859429714857428,1.0382604633524648
1.699649824912456,1.0370338425049321
1.7133566783391694,1.0344492913096526
1.7270635317658827,1.0310335818766292
1.7407703851925962,1.0273294707167713
1.7544772386193095,1.0235790224072623
1.7681840920460228,1.0215031322266774
1.7818909454727363,1.0189987209530065
1.7955977988994496,1.017882497873873
1.8093046523261629,1.0178116359115046
1.8230115057528762,1.0163298534732312
1.8367183591795897,1.0134559863018606
1.850425212606303,1.0151741125012848
1.8641320660330163,1.0169685963921815
1.8778389194597296,1.015576404048813
1.891545772886443,1.0169412521368801
1.9052526263131564,1.0165301361692118
1.9189594797398697,1.0167920599561202
1.9326663331665832,1.0176932271493773
1.9463731865932965,1.0172735282741856
1.9600800400200098,1.0174720811573723
1.973786893446723,1.0150095651076392
1.9874937468734366,1.013417521479503
2.00120060030015,1.0118960268445407
2.014907453726863,1.0097206731091766
2.0286143071535765,1.0087946092524438
2.04232116058029,1.0044827034569526
2.0560280140070035,1.002805648576529
2.069734867433717,0.9985111819837992
2.08344172086043,0.9966675147256294
2.0971485742871434,0.9914177282142791
2.1108554277138567,0.9899706345735236
2.12456228114057,0.9886628178151848
2.1382691345672833,0.9876131632861858
2.1519759879939966,0.9886180249178607
2.1656828414207103,0.9877754625692237
2.1793896948474236,0.9893617453627721
2.193096548274137,0.9915261587570474
2.20680340170085,0.9949742707803423
2.2205102551275635,0.9994306177200175
2.234217108554277,1.0038984398863902
2.24792396198099,1.0096607236467658
2.261630815407704,1.0160157190103891
2.275337668834417,1.021569713436814
2.2890445222611304,1.0289873716137294
2.3027513756878437,1.0344187882239488
2.316458229114557,1.0408810924213112
2.3301650825412703,1.0451025471234139
2.3438719359679836,1.049573942928086
2.3575787893946973,1.0536248915249795
2.3712856428214106,1.0561023853312392
2.384992496248124,1.0567884333153867
2.3986993496748372,1.05644209877722
2.4124062031015505,1.0563773171376307
2.426113056528264,1.0547482815393678
2.439819909954977,1.0494546370041034
2.4535267633816904,1.0468300592315838
2.467233616808404,1.0402810456011387
2.4809404702351174,1.0346882890316507
2.4946473236618307,1.0264405819730296
2.508354177088544,1.020005313160693
2.5220610305152573,1.0117067754474576
2.5357678839419706,1.0041172826289688
2.549474737368684,0.9986893060918701
2.5631815907953976,0.9910579921203516
2.576888444222111,0.9854572785953408
2.5905952976488242,0.9794833993929363
2.6043021510755375,0.9774291094587344
2.618009004502251,0.9726034860326146
2.631715857928964,0.9713588283536646
2.6454227113556774,0.969271036969481
2.659129564782391,0.9717852206574232
2.6728364182091044,0.973088882256701
2.6865432716358177,0.9753577310066165
2.700250125062531,0.9791930630130445
2.7139569784892443,0.982274810365012
2.7276638319159576,0.9878293730579325
2.741370685342671,0.99444694474755
2.755077538769384,0.9989507914218473
2.768784392196098,1.0036476332042856
2.7824912456228112,1.008674449390364
2.7961980990495245,1.0139074295514656
2.809904952476238,1.017824035475043
2.823611805902951,1.0228625829986169
2.8373186593296644,1.0240264809544952
2.8510255127563777,1.0266907599934163
2.8647323661830915,1.0287823484267724
2.8784392196098048,1.0291986383140819
2.892146073036518,1.029605241195604
2.9058529264632313,1.0295409324000255
2.9195597798899446,1.0272939054996468
2.933266633316658,1.0239066382795985
2.9469734867433712,1.0240915334155152
2.960680340170085,1.0217962037586914
2.9743871935967983,1.0193516108676148
2.9880940470235116,1.0177186875319655
3.001800900450225,1.0170446938810698
3.015507753876938,1.0149149754734594
3.0292146073036514,1.0109087719058618
3.0429214607303647,1.011411658097787
3.056628314157078,1.0114662263935186
3.0703351675837918,1.0109310489562346
3.084042021010505,1.012479436243492
3.0977488744372184,1.0112253793749177
3.1114557278639317,1.0121780526222006
3.125162581290645,1.013290801555108
3.1388694347173582,1.0153804092935859
3.1525762881440715,1.013606691130062
3.1662831415707853,1.0145884201444748
3.1799899949974986,1.0145004926028072
3.193696848424212,1.0148129518265265
3.207403701850925,1.0137430161384813
3.2211105552776385,1.0113772136361412
3.2348174087043517,1.0101337913652064
3.248524262131065,1.0071584189374416
3.262231115557779,1.0017915938505697
3.275937968984492,0.9997364661735404
3.2896448224112054,0.9942363726663384
3.3033516758379187,0.9894007551756573
3.317058529264632,0.9859679289684197
3.3307653826913453,0.9810008720773126
3.3444722361180586,0.9778462685259306
3.358179089544772,0.9747565449848355
3.3718859429714856,0.9709439705266182
3.385592796398199,0.9688899037674731
3.399299649824912,0.9677627364208649
3.4130065032516255,0.9667249624917102
3.4267133566783388,0.9682908463528724
3.440420210105052,0.9700487740986593
3.4541270635317654,0.9719484237550619
3.467833916958479,0.9752013440355793
3.4815407703851924,0.9806255023704468
3.4952476238119057,0.9856440103981126
3.508954477238619,0.99312111503336
3.5226613306653323,0.9975113729992263
3.5363681840920456,1.005365504621088
3.550075037518759,1.011931494399976
3.5637818909454726,1.0185514727204221
3.577488744372186,1.0245261774851073
3.591195597798899,1.0309669427069879
3.6049024512256125,1.035798105169278
3.6186093046523258,1.0389526995978604
3.632316158079039,1.0422562715826618
3.6460230115057524,1.043288747507903
3.659729864932466,1.0441940394556048
3.6734367183591794,1.0417768014021682
3.6871435717858927,1.0406292862356605
3.700850425212606,1.0362943862705987
3.7145572786393193,1.0321058108259527
3.7282641320660326,1.028738082618575
3.741970985492746,1.0203032929425615
3.755677838919459,1.0135286240926922
3.769384692346173,1.007412104786049
3.783091545772886,0.9990617757659315
3.7967983991995995,0.9919006510529259
3.810505252626313,0.9850696075860411
3.824212106053026,0.978100697520357
3.8379189594797394,0.9725627278361068
3.8516258129064527,0.9673928564220133
3.8653326663331664,0.9645845550635478
3.8790395197598797,0.9611394614990922
3.892746373186593,0.9603198351499945
3.9064532266133063,0.9589362443063084
3.9201600800400196,0.9598033379382456
3.933866933466733,0.9609584821851871
3.947573786893446,0.9626043335124672
3.96128064032016,0.9674101062886316
3.974987493746873,0.968623892363678
3.9886943471735865,0.974182733426096
4.0024012006003,0.978361952958385
4.016108054027013,0.983619994978955
4.029814907453726,0.9869333627203893
4.04352176088044,0.9900539224064531
4.057228614307153,0.9928787010682514
4.070935467733866,0.9973443178746605
4.08464232116058,0.9992677614678622
4.098349174587293,1.0019383056526427
4.112056028014007,1.0016379623715201
4.12576288144072,1.0022434418229367
4.139469734867434,1.0038372976032777
4.153176588294147,1.003374079763537
4.16688344172086,1.0037275270465602
4.1805902951475735,1.001157789154171
4.194297148574287,1.0022975877291815
4.208004002001,0.9984032860291121
4.221710855427713,0.9976348563693593
4.235417708854427,0.9967718510128941
4.24912456228114,0.9965448866062842
4.262831415707853,0.9959553874542735
4.276538269134567,0.9966794040391297
4.29024512256128,0.996067744746614
4.303951975987993,0.9984219741038179
4.317658829414707,0.9990999879466202
4.331365682841421,0.9999078505099684
4.345072536268134,1.002044967524815
4.358779389694847,1.00401242364815
4.3724862431215605,1.0062252722995846
4.386193096548274,1.0063171136323121
4.399899949974987,1.0075495147041713
4.4136068034017,1.00845013270442
4.427313656828414,1.007972772762384
4.441020510255127,1.007564975501736
4.45472736368184,1.0066780545130718
4.468434217108554,1.0048479281593685
4.482141070535267,1.0017141855160216
4.49584792396198,0.9984940791105363
4.5095547773886935,0.994148540124996
4.523261630815408,0.9895691518142089
4.536968484242121,0.9839294959994587
4.550675337668834,0.9791459588235571
4.5643821910955475,0.9744191174911822
4.578089044522261,0.968600368509439
4.591795897948974,0.9641114635407358
4.605502751375687,0.9581756622275971
4.619209604802401,0.9545745959419738
4.632916458229114,0.9511907803449025
4.646623311655827,0.9474825661923343
4.660330165082541,0.9462949076098569
4.674037018509254,0.9458735726299068
4.687743871935967,0.9466806987389933
4.7014507253626805,0.9485863211610229
4.715157578789395,0.9525653923510051
4.728864432216108,0.9566652803143239
4.742571285642821,0.9619337118005284
4.756278139069535,0.9669382941311196
4.769984992496248,0.9733108112588088
4.783691845922961,0.9812238065850529
4.7973986993496744,0.989247498291256
4.811105552776388,0.9955037737431777
4.824812406203101,1.0030774150907629
4.838519259629814,1.0098025785992653
4.852226113056528,1.0146688319597772
4.865932966483241,1.0204162362728006
4.879639819909954,1.0245737440052047
4.8933466733366675,1.026790025635654
4.907053526763381,1.0292625514241418
4.920760380190095,1.0290704655551324
4.934467233616808,1.0274030344361904
4.948174087043522,1.025573987329031
4.961880940470235,1.0220424701299295
4.975587793896948,1.0193402498021298
4.9892946473236615,1.0136003010487997
5.003001500750375,1.0065733718650354
5.016708354177088,1.0005485938577001
5.030415207603801,0.9947894152901358
5.044122061030515,0.9875876454143709
5.057828914457228,0.9828728984783199
5.071535767883941,0.9750347536460052
5.0852426213106545,0.9701633912794357
5.098949474737368,0.9653403482564915
5.112656328164081,0.9619900069946901
5.126363181590795,0.9584325261518126
5.140070035017509,0.9560256923395601
5.153776888444222,0.9556729187115753
5.167483741870935,0.9552181672265976
5.1811905952976485,0.9563610502696258
5.194897448724362,0.9559730201696565
5.208604302151075,0.9581668970493943
5.222311155577788,0.9614501693842913
5.236018009004502,0.9630916688557322
5.249724862431215,0.966243821304189
5.263431715857928,0.9684929691852263
5.2771385692846415,0.9726470089340971
5.290845422711355,0.9751015188042795
5.304552276138068,0.9772227931992751
5.318259129564782,0.9810435966815019
5.331965982991496,0.9821408535182963
5.345672836418209,0.9845193837314806
5.359379689844922,0.9854668409899523
5.3730865432716355,0.9844430795890828
5.386793396698349,0.9854248369031491
5.400500250125062,0.9855755840385262
5.414207103551775,0.9832164871290553
5.427913956978489,0.984202343278633
5.441620810405202,0.9821059783789965
5.455327663831915,0.9817821148874017
5.4690345172586285,0.9835494768368276
5.482741370685342,0.9817761696655294
5.496448224112055,0.9837123029001646
5.510155077538768,0.9831226158542579
5.523861930965483,0.9840115567360518
5.537568784392196,0.9867855305483152
5.551275637818909,0.9896582990391081
5.5649824912456225,0.9910452962587969
5.578689344672336,0.9936641848086081
5.592396198099049,0.9981367569136148
5.606103051525762,1.0010975092095267
5.619809904952476,1.0027920770862817
5.633516758379189,1.0055050228716533
5.647223611805902,1.0064869057338046
5.660930465232616,1.009569670543696
5.674637318659329,1.0100253524813736
5.688344172086042,1.010547092268021
5.7020510255127554,1.0106399723987256
5.71575787893947,1.008016213477132
5.729464732366183,1.0054279804023138
5.743171585792896,1.0029404019354242
5.7568784392196095,0.997768814772936
5.770585292646323,0.9934143320052353
5.784292146073036,0.988836927565933
5.797998999499749,0.9817393726345718
5.811705852926463,0.9762544369387873
5.825412706353176,0.9699370995664147
5.839119559779889,0.9652795232557935
5.852826413206603,0.9587822478517604
5.866533266633316,0.9533544028921068
5.880240120060029,0.9487692268902982
5.8939469734867425,0.9428312786581424
5.907653826913456,0.9406581633600567
5.92136068034017,0.940264008249132
5.935067533766883,0.940534523057252
5.9487743871935965,0.9398610508431443
5.96248124062031,0.9433353364909547
5.976188094047023,0.9474874444765244
5.989894947473736,0.9508645457623458
6.00360180090045,0.9566669569428528
6.017308654327163,0.9649183664122659
6.031015507753876,0.9703466197149941
6.04472236118059,0.9774567164239851
6.058429214607303,0.9849810487039115
6.072136068034016,0.9934407558268478
6.0858429214607295,0.9995605413765963
6.099549774887443,1.0088427997659744
6.113256628314156,1.0128130287714872
6.12696348174087,1.0181307036281673
6.1406703351675835,1.0213587683698546
6.154377188594297,1.024349049327927
6.16808404202101,1.0247459862754398
6.181790895447723,1.027141028587131
6.195497748874437,1.0247328841152092
6.20920460230115,1.0243466995119808
6.222911455727863,1.020357021632707
6.236618309154577,1.0170894352502164
6.25032516258129,1.0136124654824743
6.264032016008003,1.0086544251267149
6.2777388694347165,1.0040764855839117
6.29144572286143,0.9988789769965523
6.305152576288143,0.992353220991424
6.318859429714857,0.9874083675509532
6.3325662831415706,0.9830940610740847
6.346273136568284,0.9775397664160028
6.359979989994997,0.9740616221123429
6.37368684342171,0.9711460708734126
6.387393696848424,0.9692769989836376
6.401100550275137,0.967189978097008
6.41480740370185,0.9675759424035029
6.428514257128564,0.96679862895
6.442221110555277,0.9670067619145911
6.45592796398199,0.9687015270130247
6.4696348174087035,0.9705292145458317
6.483341670835417,0.972319007936164
6.49704852426213,0.9746376158479864
6.510755377688843,0.9756212018554562
6.524462231115558,0.9779634659010413
6.538169084542271,0.9811201960395937
6.551875937968984,0.9821062608820298
6.5655827913956974,0.98217161387939
6.579289644822411,0.9827890319194974
6.592996498249124,0.9848177871918992
6.606703351675837,0.9838978186406314
6.620410205102551,0.9823698943909431
6.634117058529264,0.9823222214467877
6.647823911955977,0.9841756065440928
6.6615307653826905,0.981753278924816
6.675237618809404,0.9807594526631154
6.688944472236117,0.9802115983653987
6.70265132566283,0.9797258870023604
6.716358179089544,0.9812126558905178
6.730065032516258,0.9797600409829861
6.743771885942971,0.9832470989487639
6.7574787393696845,0.9832964454262785
6.771185592796398,0.9864069428974324
6.784892446223111,0.989771818407647
6.798599299649824,0.9943569110823403
6.812306153076538,0.9960679904134316
6.826013006503251,1.0003309859656275
6.839719859929964,1.003012081197963
6.8534267133566775,1.0093514339501342
6.867133566783391,1.0134906530042447
6.880840420210104,1.0185104724152587
6.894547273636817,1.0203275710943116
6.908254127063531,1.0234202072392837
6.921960980490245,1.025429724695182
6.935667833916958,1.0269783814728064
6.9493746873436715,1.0282964960734688
6.963081540770385,1.0264758737018518
6.976788394197098,1.0247682237954197
6.990495247623811,1.0227817786115347
7.004202101050525,1.0198716958055345
7.017908954477238,1.0137498292373006
7.031615807903951,1.0096608918084422
7.0453226613306645,1.0026348952679451
7.059029514757378,0.99548582974415
7.072736368184091,0.9902406047773853
7.086443221610804,0.9819767956915194
7.100150075037518,0.975776662259885
7.113856928464231,0.9691782904733428
7.127563781890945,0.964951761815144
7.1412706353176585,0.9605720897078756
7.154977488744372,0.9560777105425242
7.168684342171085,0.9541430524087754
7.182391195597798,0.9511172007459732
7.196098049024512,0.9519989962808946
7.209804902451225,0.9530632239287457
7.223511755877938,0.954379671854642
7.2372186093046516,0.9579930384520068
7.250925462731365,0.9626486028761887
7.264632316158078,0.9697535270541098
7.278339169584791,0.9747141820635026
7.292046023011505,0.9814712180035728
7.305752876438218,0.9886146867239296
7.319459729864932,0.9973061726331557
7.3331665832916455,1.002444392769784
7.346873436718359,1.0100167846470127
