time,flux
0.0,0.9950946807739018
0.013706853426713355,0.9974225523716176
0.02741370685342671,1.0007966085683546
0.041120560280140064,1.0033571661847218
0.05482741370685342,1.0056761658399584
0.06853426713356678,1.007430499227508
0.08224112056028013,1.010816403975237
0.09594797398699349,1.013465283322444
0.10965482741370684,1.0159337586236055
0.1233616808404202,1.016839288602226
0.13706853426713356,1.0178478049870485
0.1507753876938469,1.0197793917128837
0.16448224112056026,1.019800593854843
0.1781890945472736,1.021046082770425
0.19189594797398699,1.0192898530614916
0.20560280140070034,1.0191978492672906
0.21930965482741369,1.0166953247598824
0.23301650825412704,1.0146649079287693
0.2467233616808404,1.0106198998589648
0.26043021510755376,1.0062948491752441
0.2741370685342671,1.0017344909910002
0.28784392196098046,0.9990956670564859
0.3015507753876938,0.9939194606507837
0.31525762881440716,0.9900366876091405
0.3289644822411205,0.9864935834455764
0.34267133566783387,0.981741911639777
0.3563781890945472,0.9786465754673258
0.3700850425212606,0.9763413565020231
0.38379189594797397,0.9756248006204833
0.3974987493746873,0.9733017959497369
0.41120560280140067,0.9726645090858191
0.424912456228114,0.9729129179869976
0.43861930965482737,0.9751273020268946
0.4523261630815407,0.9773770353670669
0.46603301650825407,0.9802107538903577
0.4797398699349674,0.9841735159049685
0.4934467233616808,0.988911869990095
0.5071535767883941,0.9931584045996915
0.5208604302151075,0.9974330452929688
0.5345672836418208,1.0045950691473537
0.5482741370685342,1.0086350197271912
0.5619809904952475,1.012957593480905
0.5756878439219609,1.0184163574434153
0.5893946973486743,1.0219406228363264
0.6031015507753876,1.0250781246382574
0.616808404202101,1.0284071066838187
0.6305152576288143,1.0290918510943605
0.6442221110555277,1.0291416928068406
0.657928964482241,1.0269729710609716
0.6716358179089544,1.0265388124680221
0.6853426713356677,1.0248940441437056
0.6990495247623811,1.020799934070944
0.7127563781890944,1.0184027819139283
0.7264632316158078,1.012685898659609
0.7401700850425212,1.0083689384517227
0.7538769384692345,1.0024093305099087
0.7675837918959479,1.0005033085408452
0.7812906453226612,0.9936848674436584
0.7949974987493746,0.9898585302276066
0.8087043521760879,0.9861563433599674
0.8224112056028013,0.9806355296239698
0.8361180590295146,0.979444638131053
0.849824912456228,0.9773167027222036
0.8635317658829413,0.9752169872377188
0.8772386193096547,0.9742503266902873
0.8909454727363681,0.9743715609507742
0.9046523261630814,0.9756400427955166
0.9183591795897948,0.9773088506618162
0.9320660330165081,0.9787858299248936
0.9457728864432215,0.9843654217704736
0.9594797398699348,0.9852186519015512
0.9731865932966483,0.9883113718554939
0.9868934467233615,0.9915672937993395
1.000600300150075,0.9976405342945054
1.0143071535767882,1.0005549041077164
1.0280140070035018,1.0034596756294454
1.041720860430215,1.0063283152216116
1.0554277138569284,1.0097530179062901
1.0691345672836416,1.0119900063335938
1.0828414207103552,1.014364982815828
1.0965482741370685,1.0145151352016506
1.1102551275637818,1.0173939519833919
1.123961980990495,1.018927365809979
1.1376688344172086,1.019436065478594
1.1513756878439219,1.0187508276121187
1.1650825412706352,1.0175428989877982
1.1787893946973487,1.0178906074074177
1.192496248124062,1.017576070477825
1.2062031015507753,1.014312454163301
1.2199099549774886,1.0120986122993871
1.233616808404202,1.0115218315196561
1.2473236618309154,1.008516510282206
1.2610305152576287,1.0065078523447406
1.274737368684342,1.0036859470126818
1.2884442221110555,1.0014942169136802
1.3021510755377688,0.9990131354658601
1.315857928964482,0.996450410600545
1.3295647823911956,0.9949809323391503
1.3432716358179089,0.9916170277916838
1.3569784892446222,0.9895233310911754
1.3706853426713355,0.9869387173712969
1.384392196098049,0.9848502843539492
1.3980990495247623,0.9825198009935567
1.4118059029514756,0.9816121166416221
1.4255127563781889,0.980162641948703
1.4392196098049024,0.9809847699052286
1.4529264632316157,0.9781960629641361
1.466633316658329,0.9800200667342628
1.4803401700850425,0.979084103783044
1.4940470235117558,0.9810729475850126
1.507753876938469,0.9826361255906051
1.5214607303651824,0.9864625591225621
1.5351675837918959,0.9879852233218335
1.5488744372186092,0.9931296284556262
1.5625812906453225,0.9956561164026307
1.5762881440720358,0.9999040162104943
1.5899949974987493,1.0031536605521392
1.6037018509254626,1.0081488665947844
1.6174087043521759,1.013265293378395
1.6311155577788894,1.016260937818301
1.6448224112056027,1.0202865268171064
1.658529264632316,1.0244456693197672
1.6722361180590293,1.0251756513989057
1.6859429714857428,1.0284843467225886
1.699649824912456,1.0281735464128354
1.7133566783391694,1.027602012250414
1.7270635317658827,1.028014188745844
1.7407703851925962,1.0271636819062357
1.7544772386193095,1.0235970058365043
1.7681840920460228,1.020059830528897
1.7818909454727363,1.0152693476948953
1.7955977988994496,1.0109043366309394
1.8093046523261629,1.0061793867688953
1.8230115057528762,1.0000713122593279
1.8367183591795897,0.9924934393996546
1.850425212606303,0.9887803238674643
1.8641320660330163,0.9827152717228708
1.8778389194597296,0.9765647654600419
1.891545772886443,0.9729134846389949
1.9052526263131564,0.9696503594966673
1.9189594797398697,0.9667253308707972
1.9326663331665832,0.9642064427506009
1.9463731865932965,0.963363189804743
1.9600800400200098,0.9648987802613885
1.973786893446723,0.9663469944949343
1.9874937468734366,0.9701677901035776
2.00120060030015,0.9751918793046571
2.014907453726863,0.9780184516711792
2.0286143071535765,0.9864609643056865
2.04232116058029,0.9923315413148418
2.0560280140070035,0.9985653665043978
2.069734867433717,1.0048102949832478
2.08344172086043,1.011213634164113
2.0971485742871434,1.0173844427037977
2.1108554277138567,1.023562316222763
2.12456228114057,1.0284774926542783
2.1382691345672833,1.0322824356499753
2.1519759879939966,1.0342751452820629
2.1656828414207103,1.0369271947483376
2.1793896948474236,1.0344908560977848
2.193096548274137,1.0352900311294486
2.20680340170085,1.0332090512259622
2.2205102551275635,1.0280967572197335
2.234217108554277,1.0261560466196962
2.24792396198099,1.0200255404317535
2.261630815407704,1.01481249967923
2.275337668834417,1.0092303006187224
2.2890445222611304,1.0032309673599185
2.3027513756878437,0.9973850678503876
2.316458229114557,0.9903503309068996
2.3301650825412703,0.9854444056282361
2.3438719359679836,0.9790254739358498
2.3575787893946973,0.9757042655693914
2.3712856428214106,0.9726846158141814
2.384992496248124,0.9700969550840348
2.3986993496748372,0.9690851170080814
2.4124062031015505,0.9687616856785027
2.426113056528264,0.9677310708379985
2.439819909954977,0.9717814753367303
2.4535267633816904,0.9722840367130324
2.467233616808404,0.9765072273988153
2.4809404702351174,0.9800135088107714
2.4946473236618307,0.9861317566062253
2.508354177088544,0.9905105723746486
2.5220610305152573,0.9944665972600694
2.5357678839419706,0.9988700368311844
2.549474737368684,1.0038305042828666
2.5631815907953976,1.0079292944392422
2.576888444222111,1.0112538844259573
2.5905952976488242,1.016180356095109
2.6043021510755375,1.018992554588244
2.618009004502251,1.020701627447859
2.631715857928964,1.0217845857003878
2.6454227113556774,1.02340225653451
2.659129564782391,1.0218442485672579
2.6728364182091044,1.02220492332973
2.6865432716358177,1.0171044310336257
2.700250125062531,1.0193767734740464
2.7139569784892443,1.0183775130281465
2.7276638319159576,1.0151184535882483
2.741370685342671,1.01163322354394
2.755077538769384,1.0094558740903499
2.768784392196098,1.0070522159127129
2.7824912456228112,1.003432282537014
2.7961980990495245,1.001375407010755
2.809904952476238,0.9986538091621406
2.823611805902951,0.9966908757039147
2.8373186593296644,0.992629731521561
2.8510255127563777,0.991508154420589
2.8647323661830915,0.9893292438035233
2.8784392196098048,0.9873394398235948
2.892146073036518,0.9859515720396516
2.9058529264632313,0.984261935663182
2.9195597798899446,0.9841402767377434
2.933266633316658,0.9828809567244179
2.9469734867433712,0.9832697746332593
2.960680340170085,0.9824545824375004
2.9743871935967983,0.9846515729915383
2.9880940470235116,0.9834006435158531
3.001800900450225,0.9843233217384131
3.015507753876938,0.9843926328880188
3.0292146073036514,0.9876349265563465
3.0429214607303647,0.9888201384141222
3.056628314157078,0.9910943650518662
3.0703351675837918,0.9949549694700842
3.084042021010505,0.9974718412684128
3.0977488744372184,1.000459251906428
3.1114557278639317,1.0028183632686452
3.125162581290645,1.0060864600835702
3.1388694347173582,1.0096905640614142
3.1525762881440715,1.011802019663599
3.1662831415707853,1.015790332068582
3.1799899949974986,1.0172866678338457
3.193696848424212,1.019995465759507
3.207403701850925,1.0224894459726894
3.2211105552776385,1.02088661559681
3.2348174087043517,1.0212525949152675
3.248524262131065,1.0228820961946397
3.262231115557779,1.0220162084430855
3.275937968984492,1.0198436734483356
3.2896448224112054,1.0178776664615397
3.3033516758379187,1.014841044644228
3.317058529264632,1.0121144698381164
3.3307653826913453,1.0073858172214953
3.3444722361180586,1.0036537799521907
3.358179089544772,0.999042016782769
3.3718859429714856,0.9959844371348404
3.385592796398199,0.9915297859318486
3.399299649824912,0.9858630868441592
3.4130065032516255,0.9817807324933339
3.4267133566783388,0.9788902723549949
3.440420210105052,0.9756900237086665
3.4541270635317654,0.9734012892917612
3.467833916958479,0.9728436035050747
3.4815407703851924,0.9716541318192805
3.4952476238119057,0.9720670308532116
3.508954477238619,0.9744523523796644
3.5226613306653323,0.9776063308107431
3.5363681840920456,0.9808476805091945
3.550075037518759,0.9838685438885536
3.5637818909454726,0.9878027515312807
3.577488744372186,0.9921294383867373
3.591195597798899,0.997003525283647
3.6049024512256125,1.0034940163321142
3.6186093046523258,1.0074449702252943
3.632316158079039,1.0130792500279304
3.6460230115057524,1.0185747066880306
3.659729864932466,1.0223169281532474
3.6734367183591794,1.0246555302558369
3.6871435717858927,1.0256338438958967
3.700850425212606,1.0282025932545702
3.7145572786393193,1.0289597338638405
3.7282641320660326,1.0287941824370217
3.741970985492746,1.0260793346005843
3.755677838919459,1.024275733664698
3.769384692346173,1.01851518948646
3.783091545772886,1.0177117795704294
3.7967983991995995,1.0123173158310532
3.810505252626313,1.0079686882940966
3.824212106053026,1.003629717032311
3.8379189594797394,0.9993299185793326
3.8516258129064527,0.9961215943245197
3.8653326663331664,0.9912503517325619
3.8790395197598797,0.9857611265095765
3.892746373186593,0.9833770071104113
3.9064532266133063,0.9807696990606342
3.9201600800400196,0.978560603231182
3.933866933466733,0.9780957467080772
3.947573786893446,0.9769264619274055
3.96128064032016,0.9773274793971908
3.974987493746873,0.9787447143072401
3.9886943471735865,0.9798982279738304
4.0024012006003,0.9829131992511205
4.016108054027013,0.9849100486709681
4.029814907453726,0.9862182516908657
4.04352176088044,0.9901171942916306
4.057228614307153,0.9929016846973803
4.070935467733866,0.9968927350345316
4.08464232116058,0.9989857196798893
4.098349174587293,1.001789250272916
4.112056028014007,1.0050270186736723
4.12576288144072,1.0070757164313535
4.139469734867434,1.008565250842672
4.153176588294147,1.011775538177425
4.16688344172086,1.0136536616869
4.1805902951475735,1.0135823919208689
4.194297148574287,1.0136651113277901
4.208004002001,1.0139120618799335
4.221710855427713,1.0131167612356875
4.235417708854427,1.0146692414020528
4.24912456228114,1.0142075239465633
4.262831415707853,1.0133070450418538
4.276538269134567,1.0114763555716773
4.29024512256128,1.0102649514209887
4.303951975987993,1.0083430331514227
4.317658829414707,1.0081130042419764
4.331365682841421,1.0090057736656157
4.345072536268134,1.0069383491978265
4.358779389694847,1.00410150677918
4.3724862431215605,1.002537542617525
4.386193096548274,1.001499690262375
4.399899949974987,1.0000557774391994
4.4136068034017,0.9968035746319054
4.427313656828414,0.9951937066676622
4.441020510255127,0.9943737947696133
4.45472736368184,0.9918800316680707
4.468434217108554,0.98996617285782
4.482141070535267,0.9872806338469221
4.49584792396198,0.984929721439843
4.5095547773886935,0.9842670080457079
4.523261630815408,0.9816051545553883
4.536968484242121,0.9812183065264358
4.550675337668834,0.9818223130739605
4.5643821910955475,0.9816621283055119
4.578089044522261,0.9816289076856043
4.591795897948974,0.9833473867664468
4.605502751375687,0.9831751287904529
4.619209604802401,0.9883504533613657
4.632916458229114,0.9899398671213547
4.646623311655827,0.993203599409095
4.660330165082541,0.9955150364279199
4.674037018509254,0.9999184690370726
4.687743871935967,1.0060788082988008
4.7014507253626805,1.0092317669651445
4.715157578789395,1.013573885550298
4.728864432216108,1.0166949325463175
4.742571285642821,1.0225084065702619
4.756278139069535,1.0230092913478859
4.769984992496248,1.0257149566575194
4.783691845922961,1.0280891522762818
4.7973986993496744,1.0283446082472885
4.811105552776388,1.0283909290008897
4.824812406203101,1.0269859379497093
4.838519259629814,1.0280409938584867
4.852226113056528,1.0225885276954352
4.865932966483241,1.017458790202977
4.879639819909954,1.014021571220221
4.8933466733366675,1.009136689009411
4.907053526763381,1.003213107431608
4.920760380190095,0.9988346230069819
4.934467233616808,0.9907513326513044
4.948174087043522,0.9862975740941413
4.961880940470235,0.9805571158399785
4.975587793896948,0.9740719259582523
4.9892946473236615,0.9719905732835159
5.003001500750375,0.9685231354888769
5.016708354177088,0.9674812237104508
5.030415207603801,0.9654475062079139
5.044122061030515,0.9661278736268081
5.057828914457228,0.9690881780440835
5.071535767883941,0.970126053506968
5.0852426213106545,0.9734247332475615
5.098949474737368,0.9791879633926237
5.112656328164081,0.9831053049999148
5.126363181590795,0.9895384848098642
5.140070035017509,0.9956143216878484
5.153776888444222,1.0016255455859038
5.167483741870935,1.0082688741723367
5.1811905952976485,1.013759090108069
5.194897448724362,1.0198486573717367
5.208604302151075,1.0234751140752847
5.222311155577788,1.027686552232781
5.236018009004502,1.032152957374605
5.249724862431215,1.0328584977962811
5.263431715857928,1.0347626677754187
5.2771385692846415,1.0347262483831796
5.290845422711355,1.032645263287486
5.304552276138068,1.0293324570814566
5.318259129564782,1.0269690457542289
5.331965982991496,1.0214634520179522
5.345672836418209,1.0170119307991747
5.359379689844922,1.0109153012263528
5.3730865432716355,1.0068114749416295
5.386793396698349,1.0008282116597993
5.400500250125062,0.9939198547112366
5.414207103551775,0.9890664152166923
5.427913956978489,0.979208081220011
5.441620810405202,0.9803832168863061
5.455327663831915,0.9770748466959609
5.4690345172586285,0.9743281485960991
5.482741370685342,0.9718524856763039
5.496448224112055,0.9717927806572138
5.510155077538768,0.9713481683122333
5.523861930965483,0.9715566145876076
5.537568784392196,0.9729018630822301
5.551275637818909,0.9804241786935972
5.5649824912456225,0.9796425707628127
5.578689344672336,0.982356053108303
5.592396198099049,0.9864131953485494
5.606103051525762,0.9892896199431647
5.619809904952476,0.9949689262036152
5.633516758379189,1.0000395646834415
5.647223611805902,1.0041173266459886
5.660930465232616,1.0085929394639837
5.674637318659329,1.0113849053938315
5.688344172086042,1.0129612076933927
5.7020510255127554,1.015938871497637
5.71575787893947,1.0188644966665898
5.729464732366183,1.0206849575371122
5.743171585792896,1.0225883269883236
5.7568784392196095,1.0214351135076492
5.770585292646323,1.0217590246212422
5.784292146073036,1.0205442601800987
5.797998999499749,1.0197392684005389
5.811705852926463,1.019109838713869
5.825412706353176,1.0168551625320124
5.839119559779889,1.0154340816484226
5.852826413206603,1.0129070706896306
5.866533266633316,1.0096490278385977
5.880240120060029,1.006186899196097
5.8939469734867425,1.0043607919084918
5.907653826913456,1.0014549880332941
5.92136068034017,0.9975827135150184
5.935067533766883,0.9960411406946512
5.9487743871935965,0.9924485868293753
5.96248124062031,0.9895219152048557
5.976188094047023,0.9875197233861347
5.989894947473736,0.984718110257612
6.00360180090045,0.9834303986279097
6.017308654327163,0.981299935461294
6.031015507753876,0.9789938098919019
6.04472236118059,0.97966879187533
6.058429214607303,0.9772828863390371
6.072136068034016,0.9779871144583541
6.0858429214607295,0.9785570603813398
6.099549774887443,0.9805497445240567
6.113256628314156,0.9811260151243325
6.12696348174087,0.9834764850569568
6.1406703351675835,0.9880649719368299
6.154377188594297,0.9888711887431928
6.16808404202101,0.9931392019519848
6.181790895447723,0.9995207027660657
6.195497748874437,1.0016948180969063
6.20920460230115,1.0073611116096788
6.222911455727863,1.0116261398321342
6.236618309154577,1.01532520580344
6.25032516258129,1.0178709833179171
6.264032016008003,1.022093612908612
6.2777388694347165,1.025265288197075
6.29144572286143,1.0256199913612563
6.305152576288143,1.0267172459068967
6.318859429714857,1.0269249982602167
6.3325662831415706,1.0267017619023016
6.346273136568284,1.026878269862737
6.359979989994997,1.0248400663117978
6.37368684342171,1.0212935140904702
6.387393696848424,1.0181809467812253
6.401100550275137,1.0136528663665256
6.41480740370185,1.0081546711885925
6.428514257128564,1.002972567829343
6.442221110555277,0.9980046319909496
6.45592796398199,0.992559194108455
6.4696348174087035,0.9863532741684945
6.483341670835417,0.9813118603062684
6.49704852426213,0.9772693630704141
6.510755377688843,0.9738586365056134
6.524462231115558,0.9712693894904015
6.538169084542271,0.9686844269442596
6.551875937968984,0.9667022673598961
6.5655827913956974,0.9683512226178219
6.579289644822411,0.9690778783205733
6.592996498249124,0.9695783629492398
6.606703351675837,0.9746478483735656
6.620410205102551,0.9784186759348271
6.634117058529264,0.9835964703462534
6.647823911955977,0.988368965299413
6.6615307653826905,0.9945910996750057
6.675237618809404,0.9998486908298958
6.688944472236117,1.0054881166410052
6.70265132566283,1.0118198512649812
6.716358179089544,1.0180578804336613
6.730065032516258,1.021632118894881
6.743771885942971,1.0252422434584947
6.7574787393696845,1.0271211139470517
6.771185592796398,1.0310883958896937
6.784892446223111,1.030897792965212
6.798599299649824,1.0307983515904646
6.812306153076538,1.0301308291030316
6.826013006503251,1.0277424329987255
6.839719859929964,1.0240465569000343
6.8534267133566775,1.0214457723637802
6.867133566783391,1.0157844283426858
6.880840420210104,1.0124675577790023
6.894547273636817,1.0063705660405617
6.908254127063531,1.000936502763425
6.921960980490245,0.995624843481924
6.935667833916958,0.9913570410818237
6.9493746873436715,0.9872998782012623
6.963081540770385,0.9836965947746555
6.976788394197098,0.9797410073976279
6.990495247623811,0.9766778292803887
7.004202101050525,0.9765681175726033
7.017908954477238,0.9751243895423624
7.031615807903951,0.9760903660186311
7.0453226613306645,0.9756827198941104
7.059029514757378,0.9781115891649473
7.072736368184091,0.9806643853417114
7.086443221610804,0.9834944092248641
7.100150075037518,0.9860344587692075
7.113856928464231,0.9884694944124843
7.127563781890945,0.9928596934697005
7.1412706353176585,0.9954470447449
7.154977488744372,0.9980519715194476
7.168684342171085,1.0033882380820656
7.182391195597798,1.0046639246852094
7.196098049024512,1.0082337941129949
7.209804902451225,1.0104270889575973
7.223511755877938,1.0125292417325187
7.2372186093046516,1.0127715469965723
7.250925462731365,1.0131157245457594
7.264632316158078,1.0137905651076888
7.278339169584791,1.0153574377096968
7.292046023011505,1.0153437669162766
7.305752876438218,1.0145437623221
7.319459729864932,1.0122790286773953
7.3331665832916455,1.011646626248634
7.346873436718359,1.0113021069486035
