time,flux
0.0,1.0011116679676133
0.013706853426713355,1.009636787039285
0.02741370685342671,1.0183651269169496
0.041120560280140064,1.0268688608107919
0.05482741370685342,1.0318247264642066
0.06853426713356678,1.0367971276001953
0.08224112056028013,1.043815449174824
0.09594797398699349,1.0462205843800665
0.10965482741370684,1.048431111787539
0.1233616808404202,1.0482199607962903
0.13706853426713356,1.0453660469541344
0.1507753876938469,1.0423640645245524
0.16448224112056026,1.0371386125081632
0.1781890945472736,1.033672120831282
0.19189594797398699,1.0270079753388957
0.20560280140070034,1.0205305800856006
0.21930965482741369,1.012212901696227
0.23301650825412704,1.0051164054918786
0.2467233616808404,0.9949477982134973
0.26043021510755376,0.986867423680145
0.2741370685342671,0.9779830004661428
0.28784392196098046,0.9737911798200459
0.3015507753876938,0.9655550469475115
0.31525762881440716,0.9621898696022188
0.3289644822411205,0.9573189831673016
0.34267133566783387,0.9529669744154816
0.3563781890945472,0.954915212216087
0.3700850425212606,0.9525031741837507
0.38379189594797397,0.9552766306409922
0.3974987493746873,0.9599280225927651
0.41120560280140067,0.9652271904628006
0.424912456228114,0.9697734357518987
0.43861930965482737,0.9757172983011233
0.4523261630815407,0.9851822733573247
0.46603301650825407,0.9900774443205967
0.4797398699349674,0.9989778413003717
0.4934467233616808,1.007784410228947
0.5071535767883941,1.0162620421221549
0.5208604302151075,1.021355612120619
0.5345672836418208,1.0298986211941867
0.5482741370685342,1.034360251290071
0.5619809904952475,1.038344685409547
0.5756878439219609,1.0436746625999374
0.5893946973486743,1.0450873159613734
0.6031015507753876,1.0459337269524143
0.616808404202101,1.0453977633923086
0.6305152576288143,1.041868591784819
0.6442221110555277,1.0368536801246322
0.657928964482241,1.0335756318340978
0.6716358179089544,1.0298600914987182
0.6853426713356677,1.023081795749821
0.6990495247623811,1.0133505502479978
0.7127563781890944,1.0055756693516358
0.7264632316158078,0.9997819380964733
0.7401700850425212,0.990611064161959
0.7538769384692345,0.9849499480062464
0.7675837918959479,0.9745519508092078
0.7812906453226612,0.969239130627787
0.7949974987493746,0.9642858110044757
0.8087043521760879,0.9622917214976546
0.8224112056028013,0.9560605982916168
0.8361180590295146,0.9561379163386885
0.849824912456228,0.9562970177499663
0.8635317658829413,0.9560153917024291
0.8772386193096547,0.9583384643853261
0.8909454727363681,0.9637819962499145
0.9046523261630814,0.9679449118395174
0.9183591795897948,0.9727862797923207
0.9320660330165081,0.981514842985534
0.9457728864432215,0.9879222364746421
0.9594797398699348,0.9956686643982626
0.9731865932966483,1.004754721862701
0.9868934467233615,1.0117502446205897
1.000600300150075,1.0186478293654913
1.0143071535767882,1.0273584606525403
1.0280140070035018,1.0318693995087704
1.041720860430215,1.0361029448556671
1.0554277138569284,1.03949624478708
1.0691345672836416,1.043460574879924
1.0828414207103552,1.0423207504517307
1.0965482741370685,1.0430164692871056
1.1102551275637818,1.04022156854697
1.123961980990495,1.0386180306004267
1.1376688344172086,1.0343104413338058
1.1513756878439219,1.0280984157607436
1.1650825412706352,1.0241167385530963
1.1787893946973487,1.0171242156942848
1.192496248124062,1.0093809501514828
1.2062031015507753,1.0002965905226753
1.2199099549774886,0.9935492486034313
1.233616808404202,0.9862866769907892
1.2473236618309154,0.9805601336539881
1.2610305152576287,0.9725314439287465
1.274737368684342,0.9663795684514602
1.2884442221110555,0.9617961502813155
1.3021510755377688,0.9607351446681899
1.315857928964482,0.9581202578884805
1.3295647823911956,0.958545945151871
1.3432716358179089,0.9585937747134998
1.3569784892446222,0.9608999032289363
1.3706853426713355,0.9653260510419619
1.384392196098049,0.9690880574871907
1.3980990495247623,0.9742581896976737
1.4118059029514756,0.9796347629410672
1.4255127563781889,0.9868241430613955
1.4392196098049024,0.9944458561590349
1.4529264632316157,1.001435898977093
1.466633316658329,1.007964163683251
1.4803401700850425,1.0143607015360203
1.4940470235117558,1.0186675037471702
1.507753876938469,1.0264450868307275
1.5214607303651824,1.0318019287322595
1.5351675837918959,1.0361820139202043
1.5488744372186092,1.0367548944740446
1.5625812906453225,1.0407842328201593
1.5762881440720358,1.0399881687957888
1.5899949974987493,1.0397647284290794
1.6037018509254626,1.036678727065405
1.6174087043521759,1.0322674413236557
1.6311155577788894,1.0285669606815577
1.6448224112056027,1.0222720617831245
1.658529264632316,1.016384781280898
1.6722361180590293,1.0111744747524913
1.6859429714857428,1.0048273980832614
1.699649824912456,0.9981251897253953
1.7133566783391694,0.9890686541089178
1.7270635317658827,0.9838910496404786
1.7407703851925962,0.9762779944388682
1.7544772386193095,0.9727847781019501
1.7681840920460228,0.9680228867073897
1.7818909454727363,0.9627672842567865
1.7955977988994496,0.9630624030249213
1.8093046523261629,0.9617621440574154
1.8230115057528762,0.9622560638524035
1.8367183591795897,0.9623964409160657
1.850425212606303,0.9642079584021249
1.8641320660330163,0.9691852217886922
1.8778389194597296,0.9751043060057316
1.891545772886443,0.9812460885303735
1.9052526263131564,0.9833256320749296
1.9189594797398697,0.9934080751009242
1.9326663331665832,0.9984866676407042
1.9463731865932965,1.0056113362532793
1.9600800400200098,1.0133565559291666
1.973786893446723,1.0169673301321671
1.9874937468734366,1.0242418061586391
2.00120060030015,1.028375881113963
2.014907453726863,1.0305966866171972
2.0286143071535765,1.0328854463838146
2.04232116058029,1.0350245149040096
2.0560280140070035,1.035936603734072
2.069734867433717,1.036216922343088
2.08344172086043,1.0337778541083829
2.0971485742871434,1.0311428027891298
2.1108554277138567,1.0281213638487434
2.12456228114057,1.022179642898083
2.1382691345672833,1.0161144976288283
2.1519759879939966,1.0127350621197255
2.1656828414207103,1.0072533724123927
2.1793896948474236,1.0008048790504318
2.193096548274137,0.9922729172723019
2.20680340170085,0.9884199846479351
2.2205102551275635,0.9822660360170415
2.234217108554277,0.9787982161359094
2.24792396198099,0.9732061199121965
2.261630815407704,0.9704401407606168
2.275337668834417,0.9678731772386971
2.2890445222611304,0.9684100839217701
2.3027513756878437,0.9665463050193794
2.316458229114557,0.96859721624744
2.3301650825412703,0.9701533332874173
2.3438719359679836,0.9721086741419472
2.3575787893946973,0.9757813854965142
2.3712856428214106,0.982253677396866
2.384992496248124,0.987370289050311
2.3986993496748372,0.990763089182599
2.4124062031015505,0.9959679148631974
2.426113056528264,1.0019762701909287
2.439819909954977,1.0093965359577217
2.4535267633816904,1.013401011077689
2.467233616808404,1.0167022888402022
2.4809404702351174,1.0240891007434978
2.4946473236618307,1.0257561334319845
2.508354177088544,1.0282689732793546
2.5220610305152573,1.0310655908468573
2.5357678839419706,1.0315503630938059
2.549474737368684,1.0316873191743166
2.5631815907953976,1.0288042553638217
2.576888444222111,1.0247132297912744
2.5905952976488242,1.023519628264499
2.6043021510755375,1.0190546081638276
2.618009004502251,1.0162595360298377
2.631715857928964,1.013002371670029
2.6454227113556774,1.005913687716938
2.659129564782391,1.0011917880488153
2.6728364182091044,0.9959088815829367
2.6865432716358177,0.9887249373761569
2.700250125062531,0.985379854751697
2.7139569784892443,0.9828950349230066
2.7276638319159576,0.9796222028373415
2.741370685342671,0.9754618113991285
2.755077538769384,0.9737789587045181
2.768784392196098,0.972895597173931
2.7824912456228112,0.9721971900970451
2.7961980990495245,0.9703449176581523
2.809904952476238,0.973940482246684
2.823611805902951,0.9771321685715059
2.8373186593296644,0.978205984853733
2.8510255127563777,0.9839676726011074
2.8647323661830915,0.9897400356815254
2.8784392196098048,0.9931439312986742
2.892146073036518,0.9975040261401974
2.9058529264632313,1.0024553806557066
2.9195597798899446,1.0040745345196396
2.933266633316658,1.011706270174848
2.9469734867433712,1.016149631375044
2.960680340170085,1.02059195008738
2.9743871935967983,1.0215959656968874
2.9880940470235116,1.0211219656490342
3.001800900450225,1.0240340513590827
3.015507753876938,1.0231150276822931
3.0292146073036514,1.0248537388854995
3.0429214607303647,1.024489365585501
3.056628314157078,1.0229712564438187
3.0703351675837918,1.0207284073458915
3.084042021010505,1.0170659510037467
3.0977488744372184,1.0149925888173135
3.1114557278639317,1.0093273514932324
3.125162581290645,1.005061847216874
3.1388694347173582,1.0007106032339315
3.1525762881440715,0.9958940844445343
3.1662831415707853,0.9914977473709577
3.1799899949974986,0.9895639328747184
3.193696848424212,0.985864440286123
3.207403701850925,0.9815981532679726
3.2211105552776385,0.9788952485133761
3.2348174087043517,0.9802678994430939
3.248524262131065,0.9773245627636928
3.262231115557779,0.9786426258297676
3.275937968984492,0.979717346815206
3.2896448224112054,0.9802483376717573
3.3033516758379187,0.9816590688840071
3.317058529264632,0.9839339908889392
3.3307653826913453,0.9876747395726618
3.3444722361180586,0.9896400816285803
3.358179089544772,0.9938477666900258
3.3718859429714856,0.9965183541881635
3.385592796398199,1.0013337915561884
3.399299649824912,1.0082463922365557
3.4130065032516255,1.0084670094829442
3.4267133566783388,1.0115175141484198
3.440420210105052,1.0140831750838155
3.4541270635317654,1.0155530607639005
3.467833916958479,1.0187515198465384
3.4815407703851924,1.0164130373920093
3.4952476238119057,1.020454703205154
3.508954477238619,1.0191553803089655
3.5226613306653323,1.0195335777396441
3.5363681840920456,1.0174672496392572
3.550075037518759,1.014811813445033
3.5637818909454726,1.0146485374566399
3.577488744372186,1.0066993218977913
3.591195597798899,1.0087257104667864
3.6049024512256125,1.0027661142813935
3.6186093046523258,1.0004734367816501
3.632316158079039,0.9985853317413451
3.6460230115057524,0.9961894617486264
3.659729864932466,0.9926130776253137
3.6734367183591794,0.9902236818509268
3.6871435717858927,0.9873512389239841
3.700850425212606,0.9842435462369358
3.7145572786393193,0.9833200057527969
3.7282641320660326,0.9844423801408507
3.741970985492746,0.9835265492593548
3.755677838919459,0.9841345646466496
3.769384692346173,0.98571256034653
3.783091545772886,0.9870174293630294
3.7967983991995995,0.9877168956026721
3.810505252626313,0.9910222250455049
3.824212106053026,0.9927077012180061
3.8379189594797394,0.9982418957942504
3.8516258129064527,0.9988116816723056
3.8653326663331664,1.0005732008619628
3.8790395197598797,1.0038017664939038
3.892746373186593,1.0056481164378592
3.9064532266133063,1.0085548724875304
3.9201600800400196,1.0120864724311671
3.933866933466733,1.0114325539354592
3.947573786893446,1.0120324998881334
3.96128064032016,1.013420053995718
3.974987493746873,1.0116518552344749
3.9886943471735865,1.010918257504583
4.0024012006003,1.0114856699017432
4.016108054027013,1.0087676276246889
4.029814907453726,1.0093840152456743
4.04352176088044,1.0079372009520142
4.057228614307153,1.0041626460684254
4.070935467733866,1.003280486435982
4.08464232116058,1.0014826619115078
4.098349174587293,0.99992674760703
4.112056028014007,0.9981109329697956
4.12576288144072,0.9955756916577505
4.139469734867434,0.9929590186343741
4.153176588294147,0.9921002863765299
4.16688344172086,0.9905802605806567
4.1805902951475735,0.9906444844059594
4.194297148574287,0.991920355912792
4.208004002001,0.9895628658424246
4.221710855427713,0.9895390318114429
4.235417708854427,0.989340048308305
4.24912456228114,0.993297269035384
4.262831415707853,0.9915366819474745
4.276538269134567,0.9949597578628646
4.29024512256128,0.9950229692146015
4.303951975987993,0.9993419578631225
4.317658829414707,0.9982949817262987
4.331365682841421,1.003452749326829
4.345072536268134,1.0050795930188294
4.358779389694847,1.004799467822094
4.3724862431215605,1.0054257729203855
4.386193096548274,1.006261277303011
4.399899949974987,1.007756381588818
4.4136068034017,1.0073365964057956
4.427313656828414,1.0068841034183384
4.441020510255127,1.007768426346911
4.45472736368184,1.0045875359529988
4.468434217108554,1.0063005497049595
4.482141070535267,1.0047202156328534
4.49584792396198,1.0037410478108992
4.5095547773886935,1.0028461185704038
4.523261630815408,1.0012249406892364
4.536968484242121,1.0001863865226628
4.550675337668834,0.9992607834497508
4.5643821910955475,0.9953272967988256
4.578089044522261,0.9971234921376175
4.591795897948974,0.995226799914271
4.605502751375687,0.9956190244288258
4.619209604802401,0.9933369085959627
4.632916458229114,0.9939180951104546
4.646623311655827,0.9949532450034784
4.660330165082541,0.996832819336657
4.674037018509254,0.9963724887259848
4.687743871935967,0.995422613856479
4.7014507253626805,0.9969553395814172
4.715157578789395,0.9985545331334079
4.728864432216108,0.999556025317456
4.742571285642821,1.0014294856824817
4.756278139069535,1.0015844448435096
4.769984992496248,1.0035552722014678
4.783691845922961,1.0052619893666526
4.7973986993496744,1.0050212993092231
4.811105552776388,1.0053650986786102
4.824812406203101,1.0056172017538205
4.838519259629814,1.006063301382639
4.852226113056528,1.0065373925255583
4.865932966483241,1.0071469997883642
4.879639819909954,1.0054025686863561
4.8933466733366675,1.0068047619567397
4.907053526763381,1.0035718666266527
4.920760380190095,1.0014382541877542
4.934467233616808,1.0011043654926464
4.948174087043522,0.9984681699027316
4.961880940470235,0.9970580096699733
4.975587793896948,0.9981766138637816
4.9892946473236615,0.995665085685987
5.003001500750375,0.995666361453967
5.016708354177088,0.9941458220824309
5.030415207603801,0.9931410810437011
5.044122061030515,0.9917369038505817
5.057828914457228,0.9937375034374595
5.071535767883941,0.9900917679593749
5.0852426213106545,0.9939482456821206
5.098949474737368,0.9942453689850584
5.112656328164081,0.9953836532747921
5.126363181590795,0.9967565120603051
5.140070035017509,0.997603881881691
5.153776888444222,0.9991783503050207
5.167483741870935,1.0035176761868894
5.1811905952976485,1.0014013045436245
5.194897448724362,1.0032336323873834
5.208604302151075,1.0040569732671671
5.222311155577788,1.0077186271573708
5.236018009004502,1.0097122270220784
5.249724862431215,1.008557018234081
5.263431715857928,1.0106955385469154
5.2771385692846415,1.0101698291914822
5.290845422711355,1.0111481914694966
5.304552276138068,1.0104488300071242
5.318259129564782,1.0089640085884113
5.331965982991496,1.0089167363290685
5.345672836418209,1.0056713347290018
5.359379689844922,1.0046855288084129
5.3730865432716355,1.0026850515972487
5.386793396698349,1.0005520668145014
5.400500250125062,0.9974597923054392
5.414207103551775,0.9964285302752105
5.427913956978489,0.9944222918452937
5.441620810405202,0.9906360194866298
5.455327663831915,0.9906730852204234
5.4690345172586285,0.9891276766254632
5.482741370685342,0.9884016937717335
5.496448224112055,0.9900300597896207
5.510155077538768,0.9881175549757657
5.523861930965483,0.9855104554826013
5.537568784392196,0.9870657688746133
5.551275637818909,0.986881396853145
5.5649824912456225,0.9892382355374612
5.578689344672336,0.9933350046646384
5.592396198099049,0.9945423554053406
5.606103051525762,0.9955028370236373
5.619809904952476,0.9986092541226812
5.633516758379189,1.0012776029753199
5.647223611805902,1.0046681791675929
5.660930465232616,1.0068450635839075
5.674637318659329,1.0083930022240264
5.688344172086042,1.0113561205249255
5.7020510255127554,1.012570346529628
5.71575787893947,1.0150083809397834
5.729464732366183,1.0153427720694903
5.743171585792896,1.0137697515476924
5.7568784392196095,1.0144253238059346
5.770585292646323,1.015077995168566
5.784292146073036,1.0129533088836233
5.797998999499749,1.0129706825072873
5.811705852926463,1.0098494961795539
5.825412706353176,1.0076309127052443
5.839119559779889,1.0046022082650365
5.852826413206603,0.9995676382423354
5.866533266633316,0.9992710520862055
5.880240120060029,0.9954648218895317
5.8939469734867425,0.9918669044058588
5.907653826913456,0.989289227650905
5.92136068034017,0.9868584705891252
5.935067533766883,0.9859496273111642
5.9487743871935965,0.9830210199219804
5.96248124062031,0.9818007611388551
5.976188094047023,0.9800545099857955
5.989894947473736,0.9835584120771097
6.00360180090045,0.9832245550874688
6.017308654327163,0.9797694413516517
6.031015507753876,0.9855107178656753
6.04472236118059,0.9883441732696648
6.058429214607303,0.9899227559046618
6.072136068034016,0.9920553967709352
6.0858429214607295,0.9973465029790964
6.099549774887443,0.9996018010688226
6.113256628314156,1.0032156711368123
6.12696348174087,1.0101913213342715
6.1406703351675835,1.0097063075863077
6.154377188594297,1.0125911694503376
6.16808404202101,1.0169506769771428
6.181790895447723,1.017367663879442
6.195497748874437,1.0210540210597607
6.20920460230115,1.0208735699862794
6.222911455727863,1.0224415412320658
6.236618309154577,1.0218900113181262
6.25032516258129,1.0193203273450084
6.264032016008003,1.0201131235693104
6.2777388694347165,1.0178414397434856
6.29144572286143,1.0115688744791413
6.305152576288143,1.0110373010577505
6.318859429714857,1.0054878059464525
6.3325662831415706,1.0009871285925396
6.346273136568284,0.9979895696505817
6.359979989994997,0.9942878792933264
6.37368684342171,0.9893938437530806
6.387393696848424,0.9844764122279845
6.401100550275137,0.9810790136038015
6.41480740370185,0.9795511015460358
6.428514257128564,0.9765855500165376
6.442221110555277,0.9749373622211622
6.45592796398199,0.9774494878978214
6.4696348174087035,0.9767352599560245
6.483341670835417,0.9766230278504743
6.49704852426213,0.9761675080312981
6.510755377688843,0.9804101024582647
6.524462231115558,0.9808966679852403
6.538169084542271,0.9856629468870184
6.551875937968984,0.9912374674336059
6.5655827913956974,0.9944770171802171
6.579289644822411,0.9996418947443046
6.592996498249124,1.0052388760760882
6.606703351675837,1.0090604832543666
6.620410205102551,1.0133329270969043
6.634117058529264,1.017261108241573
6.647823911955977,1.0204732176688969
6.6615307653826905,1.0239778311108922
6.675237618809404,1.0257736435765121
6.688944472236117,1.0279793401668482
6.70265132566283,1.0263975750383387
6.716358179089544,1.0299644188596109
6.730065032516258,1.0274002461037943
6.743771885942971,1.0233897702038395
6.7574787393696845,1.0224265652516233
6.771185592796398,1.0193175688938891
6.784892446223111,1.0140016161676781
6.798599299649824,1.0098739014791929
6.812306153076538,1.0030850112562524
6.826013006503251,0.9979442264378594
6.839719859929964,0.992020423255455
6.8534267133566775,0.9868839290916123
6.867133566783391,0.9848372331827473
6.880840420210104,0.9776208711833403
6.894547273636817,0.9757281796493985
6.908254127063531,0.971675908414598
6.921960980490245,0.9698755430789683
6.935667833916958,0.9709935081397776
6.9493746873436715,0.9673374421109235
6.963081540770385,0.9713421081315629
6.976788394197098,0.9733146329868818
6.990495247623811,0.9734791692253837
7.004202101050525,0.9786009881834522
7.017908954477238,0.9816445854906597
7.031615807903951,0.9869938896196705
7.0453226613306645,0.9934486270815651
7.059029514757378,0.9979524878205648
7.072736368184091,1.0040612102102113
7.086443221610804,1.0091479918182078
7.100150075037518,1.0161150929729912
7.113856928464231,1.0201860700057757
7.127563781890945,1.0245703934559474
7.1412706353176585,1.0285445592033435
7.154977488744372,1.0315339810364434
7.168684342171085,1.0337291441049676
7.182391195597798,1.0310788647482345
7.196098049024512,1.0319518592119683
7.209804902451225,1.031161375436003
7.223511755877938,1.0286648401500642
7.2372186093046516,1.0263609968602663
7.250925462731365,1.0212707360933169
7.264632316158078,1.0178319028950278
7.278339169584791,1.0112265216771459
7.292046023011505,1.005319745943068
7.305752876438218,0.9987655316572609
7.319459729864932,0.9915719342418218
7.3331665832916455,0.9850524857706126
