time,flux
0.0,1.0243172957792621
0.013706853426713355,1.026715363288369
0.02741370685342671,1.0257043647705915
0.041120560280140064,1.0272323570340465
0.05482741370685342,1.026026490922749
0.06853426713356678,1.0223459315370145
0.08224112056028013,1.0186896385187454
0.09594797398699349,1.0145020405342013
0.10965482741370684,1.010453536289979
0.1233616808404202,1.0054424659053305
0.13706853426713356,0.9944344473900822
0.1507753876938469,0.9907995305870704
0.16448224112056026,0.9850517469449068
0.1781890945472736,0.980281283080874
0.19189594797398699,0.9735478211321738
0.20560280140070034,0.9695027823870789
0.21930965482741369,0.9680843691167004
0.23301650825412704,0.9681561673020326
0.2467233616808404,0.9682700052839655
0.26043021510755376,0.9694243776854572
0.2741370685342671,0.9753954627072022
0.28784392196098046,0.9778779964293033
0.3015507753876938,0.9826784958229098
0.31525762881440716,0.9890728450311588
0.3289644822411205,0.9969053508516885
0.34267133566783387,1.0048326488886463
0.3563781890945472,1.0112068275077448
0.3700850425212606,1.0194781236992474
0.38379189594797397,1.0261986774050669
0.3974987493746873,1.030924468953515
0.41120560280140067,1.0333199480960915
0.424912456228114,1.0371449055132875
0.43861930965482737,1.0392459474886235
0.4523261630815407,1.0368272826191967
0.46603301650825407,1.0336045822444127
0.4797398699349674,1.0305369150215644
0.4934467233616808,1.0250916666407799
0.5071535767883941,1.0185026328612787
0.5208604302151075,1.0088360024853962
0.5345672836418208,1.002000786286912
0.5482741370685342,0.9926286834529636
0.5619809904952475,0.9847819947806551
0.5756878439219609,0.9771043394271008
0.5893946973486743,0.9697433872428535
0.6031015507753876,0.9652183041392159
0.616808404202101,0.9615485410505329
0.6305152576288143,0.9575528610780245
0.6442221110555277,0.9575285523089266
0.657928964482241,0.9606300064293165
0.6716358179089544,0.9625041799493939
0.6853426713356677,0.9684940707088776
0.6990495247623811,0.9734705848111631
0.7127563781890944,0.9809192041787294
0.7264632316158078,0.9889537040743747
0.7401700850425212,0.9979206674543503
0.7538769384692345,1.0090229092436953
0.7675837918959479,1.0158924771908462
0.7812906453226612,1.0260222722204295
0.7949974987493746,1.0326186782772477
0.8087043521760879,1.0381433266939868
0.8224112056028013,1.0419475271865406
0.8361180590295146,1.0429007230908693
0.849824912456228,1.0449972142509634
0.8635317658829413,1.0414066622793023
0.8772386193096547,1.0403466938120782
0.8909454727363681,1.0346652978632427
0.9046523261630814,1.02730741542347
0.9183591795897948,1.018602631363432
0.9320660330165081,1.0103921449025512
0.9457728864432215,1.000087470354761
0.9594797398699348,0.9907789728599441
0.9731865932966483,0.9803279864821725
0.9868934467233615,0.9731833229934924
1.000600300150075,0.9646133689535394
1.0143071535767882,0.9576252893065998
1.0280140070035018,0.9551675718295319
1.041720860430215,0.9515896621595555
1.0554277138569284,0.9554220715646069
1.0691345672836416,0.9537277380008272
1.0828414207103552,0.9587187579765031
1.0965482741370685,0.9641515540922793
1.1102551275637818,0.9740636540766114
1.123961980990495,0.9806951727682058
1.1376688344172086,0.9909491481860532
1.1513756878439219,1.0022333993578483
1.1650825412706352,1.009864746494658
1.1787893946973487,1.0205802568419855
1.192496248124062,1.0293054410942974
1.2062031015507753,1.0362263180696478
1.2199099549774886,1.042759443510382
1.233616808404202,1.0470903110956726
1.2473236618309154,1.0486423672036613
1.2610305152576287,1.0486674191796141
1.274737368684342,1.045123515253084
1.2884442221110555,1.0396648157772712
1.3021510755377688,1.0336977814908297
1.315857928964482,1.0266305521546306
1.3295647823911956,1.017944002551571
1.3432716358179089,1.0058692755143064
1.3569784892446222,0.9954719136478528
1.3706853426713355,0.9868350551113425
1.384392196098049,0.9773608669513868
1.3980990495247623,0.9705133225280114
1.4118059029514756,0.9629757259743674
1.4255127563781889,0.956182559907489
1.4392196098049024,0.9524524038940305
1.4529264632316157,0.9478824971175274
1.466633316658329,0.9512318681942128
1.4803401700850425,0.9544571745142764
1.4940470235117558,0.9603478584729777
1.507753876938469,0.967137534725555
1.5214607303651824,0.9745729480417633
1.5351675837918959,0.981814851558734
1.5488744372186092,0.9936466423351362
1.5625812906453225,1.0048999042176403
1.5762881440720358,1.0129316834816773
1.5899949974987493,1.0219918827135352
1.6037018509254626,1.0306333645593937
1.6174087043521759,1.0373721431635652
1.6311155577788894,1.043507075858529
1.6448224112056027,1.0479516974877694
1.658529264632316,1.0487853229612778
1.6722361180590293,1.0467027309247485
1.6859429714857428,1.0457483686485631
1.699649824912456,1.0397412380786424
1.7133566783391694,1.032979202014996
1.7270635317658827,1.0240297326938972
1.7407703851925962,1.0164419607881043
1.7544772386193095,1.0040372630937828
1.7681840920460228,0.9955919427337394
1.7818909454727363,0.985786185854084
1.7955977988994496,0.9766109107554983
1.8093046523261629,0.9671869825063261
1.8230115057528762,0.9616131133175109
1.8367183591795897,0.9560647254940677
1.850425212606303,0.9531430646367727
1.8641320660330163,0.951397651268633
1.8778389194597296,0.9531205193025106
1.891545772886443,0.9567389673246709
1.9052526263131564,0.9605051493399452
1.9189594797398697,0.968228858942845
1.9326663331665832,0.9764297138625989
1.9463731865932965,0.9853443650449817
1.9600800400200098,0.9941196139003617
1.973786893446723,1.005992382145466
1.9874937468734366,1.0137565080659432
2.00120060030015,1.0227678261214546
2.014907453726863,1.0304569375559542
2.0286143071535765,1.0367653382580213
2.04232116058029,1.0420535487245397
2.0560280140070035,1.0447506776716033
2.069734867433717,1.045506120772699
2.08344172086043,1.0455906558010555
2.0971485742871434,1.0418859503637503
2.1108554277138567,1.0347318724688566
2.12456228114057,1.0281175938314278
2.1382691345672833,1.0197172982097482
2.1519759879939966,1.0106250003345758
2.1656828414207103,1.0024571512624239
2.1793896948474236,0.9923046403668716
2.193096548274137,0.9854113411376136
2.20680340170085,0.9762153821051929
2.2205102551275635,0.967675821894902
2.234217108554277,0.9630087520703752
2.24792396198099,0.9597178604040386
2.261630815407704,0.9582913361998223
2.275337668834417,0.9568181476566386
2.2890445222611304,0.9604683224487749
2.3027513756878437,0.9612840861199227
2.316458229114557,0.967313380074089
2.3301650825412703,0.9737579288643718
2.3438719359679836,0.9800424477166462
2.3575787893946973,0.9868563352537598
2.3712856428214106,0.9987213351152703
2.384992496248124,1.006355894395715
2.3986993496748372,1.015451356230128
2.4124062031015505,1.0230524977491888
2.426113056528264,1.0286368176968266
2.439819909954977,1.0336724843851186
2.4535267633816904,1.0374171265219745
2.467233616808404,1.0386335218244236
2.4809404702351174,1.0386738987142157
2.4946473236618307,1.0380769963337375
2.508354177088544,1.0343310234250314
2.5220610305152573,1.0296001780055162
2.5357678839419706,1.023296095013075
2.549474737368684,1.017128540852958
2.5631815907953976,1.0100357303971617
2.576888444222111,0.9997278380516734
2.5905952976488242,0.9928012714282738
2.6043021510755375,0.9851818671874712
2.618009004502251,0.9787868515342044
2.631715857928964,0.9727378903788371
2.6454227113556774,0.9688396728215041
2.659129564782391,0.9683903313884463
2.6728364182091044,0.9639374772970484
2.6865432716358177,0.9682171967212907
2.700250125062531,0.9681033418931183
2.7139569784892443,0.9717750033029924
2.7276638319159576,0.9738682525373189
2.741370685342671,0.9795669517767022
2.755077538769384,0.9860763748460181
2.768784392196098,0.9935113889957699
2.7824912456228112,0.9990457127698698
2.7961980990495245,1.0052604707154484
2.809904952476238,1.0126874811834532
2.823611805902951,1.01874032426213
2.8373186593296644,1.0234667623930649
2.8510255127563777,1.0282247731475975
2.8647323661830915,1.0296227035583776
2.8784392196098048,1.029190034470276
2.892146073036518,1.0315686302831921
2.9058529264632313,1.027517019735182
2.9195597798899446,1.023245416933305
2.933266633316658,1.0205554522260911
2.9469734867433712,1.0160665479913507
2.960680340170085,1.0098273069647647
2.9743871935967983,1.004290729389514
2.9880940470235116,0.999609675172059
3.001800900450225,0.9917737312380065
3.015507753876938,0.9880909410699721
3.0292146073036514,0.9831803872367744
3.0429214607303647,0.9796427139243102
3.056628314157078,0.977379475082954
3.0703351675837918,0.9747406632095108
3.084042021010505,0.9750542349768193
3.0977488744372184,0.974974251570583
3.1114557278639317,0.9778431368640963
3.125162581290645,0.9801095421555484
3.1388694347173582,0.983326438118082
3.1525762881440715,0.9871330947638001
3.1662831415707853,0.9922577945140548
3.1799899949974986,0.9970066131011002
3.193696848424212,1.0018510861716277
3.207403701850925,1.005303537085587
3.2211105552776385,1.008558654413403
3.2348174087043517,1.0129165402693778
3.248524262131065,1.0158088706741344
3.262231115557779,1.0174981471077034
3.275937968984492,1.0161479383936807
3.2896448224112054,1.018030517078669
3.3033516758379187,1.0197805022469437
3.317058529264632,1.01738420265429
3.3307653826913453,1.0155648325600957
3.3444722361180586,1.0131022854638423
3.358179089544772,1.0087711787905593
3.3718859429714856,1.004427541162207
3.385592796398199,1.0037296402403189
3.399299649824912,0.9969304919187334
3.4130065032516255,0.9938494104848388
3.4267133566783388,0.9922053553496762
3.440420210105052,0.9917380017305313
3.4541270635317654,0.987515631621815
3.467833916958479,0.986792697537381
3.4815407703851924,0.987205954809797
3.4952476238119057,0.9871390322211728
3.508954477238619,0.9891135231362319
3.5226613306653323,0.9893976766131858
3.5363681840920456,0.989065670839506
3.550075037518759,0.9928464473132944
3.5637818909454726,0.9950306669735666
3.577488744372186,0.9984531561263765
3.591195597798899,1.001220212602737
3.6049024512256125,1.0021571273872323
3.6186093046523258,1.0033342821059799
3.632316158079039,1.0040467388062275
3.6460230115057524,1.004854188440225
3.659729864932466,1.007699895079595
3.6734367183591794,1.0046695905868588
3.6871435717858927,1.0057182734141605
3.700850425212606,1.006534957543805
3.7145572786393193,1.003914981770257
3.7282641320660326,1.0039946215553848
3.741970985492746,1.0018520662567643
3.755677838919459,0.9994417192170777
3.769384692346173,0.9988192569449172
3.783091545772886,0.9984008338630723
3.7967983991995995,1.0008957362659374
3.810505252626313,0.9989319275069681
3.824212106053026,0.9972768135882979
3.8379189594797394,0.9991081599075932
3.8516258129064527,0.997452704401519
3.8653326663331664,0.9993101148205139
3.8790395197598797,0.9989856191116712
3.892746373186593,0.9979428469927698
3.9064532266133063,1.00134600523174
3.9201600800400196,1.0004932142108252
3.933866933466733,1.0029790889753807
3.947573786893446,1.0039862858582271
3.96128064032016,1.0039809663200794
3.974987493746873,1.0047063886226169
3.9886943471735865,1.0026244708218592
4.0024012006003,1.0011185441851436
4.016108054027013,1.000942365325822
4.029814907453726,1.003382468335659
4.04352176088044,0.9998039193593045
4.057228614307153,0.9979456033020331
4.070935467733866,0.9953131688816651
4.08464232116058,0.9932675099605303
4.098349174587293,0.9939569107308984
4.112056028014007,0.9917794994778159
4.12576288144072,0.9928932761847802
4.139469734867434,0.9924748930153378
4.153176588294147,0.991106398776806
4.16688344172086,0.9915270161403122
4.1805902951475735,0.9930475083440379
4.194297148574287,0.9945110178470301
4.208004002001,0.9971390817297737
4.221710855427713,0.9993213504977444
4.235417708854427,1.0021785860538008
4.24912456228114,1.0057471658370118
4.262831415707853,1.0083373870272851
4.276538269134567,1.0108009994740983
4.29024512256128,1.0099876815634414
4.303951975987993,1.0117790497703063
4.317658829414707,1.0139830517029305
4.331365682841421,1.015772149986309
4.345072536268134,1.014863527379808
4.358779389694847,1.013571382065789
4.3724862431215605,1.0129540965580723
4.386193096548274,1.0098656400998756
4.399899949974987,1.0064942829503372
4.4136068034017,1.0025679587124618
4.427313656828414,0.999802287277561
4.441020510255127,0.9979137834499701
4.45472736368184,0.9932174951454141
4.468434217108554,0.9896637411701363
4.482141070535267,0.9870060406719893
4.49584792396198,0.9847322238335391
4.5095547773886935,0.9818183630755211
4.523261630815408,0.9808673500904931
4.536968484242121,0.9776782122433733
4.550675337668834,0.9799493149893441
4.5643821910955475,0.9803729054076417
4.578089044522261,0.9828601470377769
4.591795897948974,0.9869395360856742
4.605502751375687,0.9908700600968323
4.619209604802401,0.9939369116156626
4.632916458229114,1.0022313974958372
4.646623311655827,1.005661877178321
4.660330165082541,1.0107864458662894
4.674037018509254,1.0142383781834703
4.687743871935967,1.02021244794981
4.7014507253626805,1.0228104307271386
4.715157578789395,1.0255597934479463
4.728864432216108,1.0244084643615046
4.742571285642821,1.0248917203922827
4.756278139069535,1.024878395544292
4.769984992496248,1.022598983396658
4.783691845922961,1.0205326191468456
4.7973986993496744,1.0142881707512046
4.811105552776388,1.008735880961428
4.824812406203101,1.0042808827110423
4.838519259629814,0.9967523756434813
4.852226113056528,0.9914418393100215
4.865932966483241,0.9875786223008737
4.879639819909954,0.9799606845296895
4.8933466733366675,0.9764856844230179
4.907053526763381,0.9731388693360116
4.920760380190095,0.9711469335220193
4.934467233616808,0.9702564048399386
4.948174087043522,0.9684377643044786
4.961880940470235,0.9717258572154687
4.975587793896948,0.9732101053928277
4.9892946473236615,0.9774603109016095
5.003001500750375,0.9823838551033649
5.016708354177088,0.989463131421439
5.030415207603801,0.9965975780291596
5.044122061030515,1.0033367238070066
5.057828914457228,1.010794874622812
5.071535767883941,1.0178956181486873
5.0852426213106545,1.0221939594295648
5.098949474737368,1.0285274628102101
5.112656328164081,1.0341983129659504
5.126363181590795,1.0356120377936788
5.140070035017509,1.0374256809800095
5.153776888444222,1.0374584003640936
5.167483741870935,1.0343735399930787
5.1811905952976485,1.0290828708475837
5.194897448724362,1.0229896195214656
5.208604302151075,1.0181011782214153
5.222311155577788,1.012704520458843
5.236018009004502,1.004508718233656
5.249724862431215,0.9944244460165417
5.263431715857928,0.9862173184680021
5.2771385692846415,0.9803933000737356
5.290845422711355,0.9718936565208685
5.304552276138068,0.966819243635335
5.318259129564782,0.9644253496575237
5.331965982991496,0.9634044017333022
5.345672836418209,0.9590907722476717
5.359379689844922,0.9603170930513779
5.3730865432716355,0.9635668833798974
5.386793396698349,0.9687730294167237
5.400500250125062,0.9743120678086423
5.414207103551775,0.9775204069827371
5.427913956978489,0.98744186632208
5.441620810405202,0.9985689072421478
5.455327663831915,1.0077164657085746
5.4690345172586285,1.014618283443764
5.482741370685342,1.0233912587364247
5.496448224112055,1.030122304837639
5.510155077538768,1.0369465276995324
5.523861930965483,1.0416803041561422
5.537568784392196,1.0426824826457233
5.551275637818909,1.042772116238309
5.5649824912456225,1.0440767293984758
5.578689344672336,1.042229908190044
5.592396198099049,1.035837312488409
5.606103051525762,1.0267587044950315
5.619809904952476,1.020189613097187
5.633516758379189,1.012100061054656
5.647223611805902,1.0016416277276585
5.660930465232616,0.9919335275583537
5.674637318659329,0.9822809014817606
5.688344172086042,0.9724900292876125
5.7020510255127554,0.9682419352765038
5.71575787893947,0.9608882613392975
5.729464732366183,0.9568846251962101
5.743171585792896,0.9532529241552418
5.7568784392196095,0.9532203733531991
5.770585292646323,0.9556462642894836
5.784292146073036,0.9584875087005316
5.797998999499749,0.9637256030883026
5.811705852926463,0.9709427801813748
5.825412706353176,0.9802562919870191
5.839119559779889,0.9895641425152291
5.852826413206603,0.9978398278051467
5.866533266633316,1.0115973007572359
5.880240120060029,1.018401477882853
5.8939469734867425,1.0281293021442162
5.907653826913456,1.03518326920272
5.92136068034017,1.0421723348466991
5.935067533766883,1.0454047247825125
5.9487743871935965,1.0509658747130406
5.96248124062031,1.0506858573634683
5.976188094047023,1.0476242969472267
5.989894947473736,1.04148324826976
6.00360180090045,1.0356318773700643
6.017308654327163,1.0293517397390402
6.031015507753876,1.0207059449888043
6.04472236118059,1.0107758106720948
6.058429214607303,1.000463858071156
6.072136068034016,0.9888396495544232
6.0858429214607295,0.9811915665535282
6.099549774887443,0.9715692049643615
6.113256628314156,0.9637218453244594
6.12696348174087,0.9563720233900594
6.1406703351675835,0.9530700986287987
6.154377188594297,0.9528419671927746
6.16808404202101,0.9521306010676979
6.181790895447723,0.9528177066469429
6.195497748874437,0.9566712970168443
6.20920460230115,0.9650291442795865
6.222911455727863,0.9714283878734782
6.236618309154577,0.9787857160307113
6.25032516258129,0.9898725923851056
6.264032016008003,1.000127159996951
6.2777388694347165,1.010927196218469
6.29144572286143,1.0236440363457173
6.305152576288143,1.0307488092687325
6.318859429714857,1.0356191685799772
6.3325662831415706,1.042194429493741
6.346273136568284,1.0476465068450527
6.359979989994997,1.049589617165097
6.37368684342171,1.04951422249423
6.387393696848424,1.0463862768660974
6.401100550275137,1.0409727239138444
6.41480740370185,1.035413685978699
6.428514257128564,1.027972431739473
6.442221110555277,1.017938352076035
6.45592796398199,1.008048451586025
6.4696348174087035,1.000545633340181
6.483341670835417,0.988341059829403
6.49704852426213,0.9782061649096864
6.510755377688843,0.9688507743671958
6.524462231115558,0.9616319802778605
6.538169084542271,0.9568215830128418
6.551875937968984,0.9524112297709206
6.5655827913956974,0.9518801577045983
6.579289644822411,0.9537459883499114
6.592996498249124,0.9542221645646278
6.606703351675837,0.9583587446780175
6.620410205102551,0.9657865706387994
6.634117058529264,0.9761123299860159
6.647823911955977,0.9825613917188265
6.6615307653826905,0.9930169047455872
6.675237618809404,1.001928747276971
6.688944472236117,1.0134255323425032
6.70265132566283,1.0220734645156568
6.716358179089544,1.0290250176847933
6.730065032516258,1.0351833679205102
6.743771885942971,1.0403207417283362
6.7574787393696845,1.046749724292814
6.771185592796398,1.0458105434406235
6.784892446223111,1.0458484339120895
6.798599299649824,1.0427345290811902
6.812306153076538,1.038404924263717
6.826013006503251,1.0321497653191236
6.839719859929964,1.0258506901024356
6.8534267133566775,1.0161505499915169
6.867133566783391,1.0061409180212024
6.880840420210104,0.9967013657002822
6.894547273636817,0.9855979636091058
6.908254127063531,0.9774071803629751
6.921960980490245,0.9730081913685238
6.935667833916958,0.9637334607709311
6.9493746873436715,0.9588124367518067
6.963081540770385,0.9581145194872013
6.976788394197098,0.9577358135849579
6.990495247623811,0.9575256629873117
7.004202101050525,0.960650783112946
7.017908954477238,0.969201697386129
7.031615807903951,0.9717989390873037
7.0453226613306645,0.9804387816075991
7.059029514757378,0.9888052083787032
7.072736368184091,0.9951756877123663
7.086443221610804,1.0051646071369629
7.100150075037518,1.0129574298065382
7.113856928464231,1.0212189515899663
7.127563781890945,1.027938024382212
7.1412706353176585,1.0340054014894329
7.154977488744372,1.0390274935184403
7.168684342171085,1.0403026675756506
7.182391195597798,1.0405096816645225
7.196098049024512,1.0379388059524681
7.209804902451225,1.037055929514563
7.223511755877938,1.0317201376092306
7.2372186093046516,1.0257947942514034
7.250925462731365,1.018403325592714
7.264632316158078,1.0111598451567154
7.278339169584791,1.0047757955835876
7.292046023011505,0.9941070969176775
7.305752876438218,0.9877334037838205
7.319459729864932,0.9802948927203233
7.3331665832916455,0.9754130780574182
7.346873436718359,0.9700300109582806
