time,flux
0.0,0.9845121569214634
0.013706853426713355,0.9917569510034139
0.02741370685342671,0.9938156553492076
0.041120560280140064,1.0001429111860565
0.05482741370685342,1.0060121299056934
0.06853426713356678,1.0108902785323435
0.08224112056028013,1.0158166796896195
0.09594797398699349,1.0183710412024212
0.10965482741370684,1.0208006747797793
0.1233616808404202,1.0219039732719535
0.13706853426713356,1.022484280297755
0.1507753876938469,1.022050273226821
0.16448224112056026,1.0190693284334194
0.1781890945472736,1.0153918596090679
0.19189594797398699,1.0118904359087335
0.20560280140070034,1.0070581076407918
0.21930965482741369,1.0000090692693406
0.23301650825412704,0.9953360230207381
0.2467233616808404,0.9891573281717494
0.26043021510755376,0.9849089041906883
0.2741370685342671,0.9815291949780649
0.28784392196098046,0.9781711221368581
0.3015507753876938,0.9772152993348096
0.31525762881440716,0.9763397363998627
0.3289644822411205,0.9784723548966385
0.34267133566783387,0.979321360038072
0.3563781890945472,0.983430554261996
0.3700850425212606,0.9876853379475697
0.38379189594797397,0.9934521580386583
0.3974987493746873,0.9964547154418539
0.41120560280140067,1.0031495970645914
0.424912456228114,1.0084380654153189
0.43861930965482737,1.014441268134529
0.4523261630815407,1.0176064343939604
0.46603301650825407,1.0193536117854336
0.4797398699349674,1.0215064810066423
0.4934467233616808,1.0228553284108917
0.5071535767883941,1.0232643677568567
0.5208604302151075,1.0202941446285685
0.5345672836418208,1.0172105127322935
0.5482741370685342,1.0138513490136833
0.5619809904952475,1.0093267643579522
0.5756878439219609,1.0039157864031436
0.5893946973486743,0.997606148959796
0.6031015507753876,0.9926632253071523
0.616808404202101,0.9889531967942063
0.6305152576288143,0.9834409419139108
0.6442221110555277,0.9798220064082876
0.657928964482241,0.9782830356009902
0.6716358179089544,0.9759898123991351
0.6853426713356677,0.9773916099908875
0.6990495247623811,0.9782624330617182
0.7127563781890944,0.9807519125058497
0.7264632316158078,0.9844905255890107
0.7401700850425212,0.9882500457702863
0.7538769384692345,0.9941238523471563
0.7675837918959479,0.9998604294326198
0.7812906453226612,1.004775064579813
0.7949974987493746,1.0110550915699408
0.8087043521760879,1.015382887912673
0.8224112056028013,1.01818056435849
0.8361180590295146,1.021064521150314
0.849824912456228,1.021907897605708
0.8635317658829413,1.02374024142187
0.8772386193096547,1.0222205825665724
0.8909454727363681,1.0194353319383458
0.9046523261630814,1.017322209735124
0.9183591795897948,1.0135755527373012
0.9320660330165081,1.0064515682580546
0.9457728864432215,1.0023873685063132
0.9594797398699348,0.9953676258064196
0.9731865932966483,0.9915630861242681
0.9868934467233615,0.9863601005468209
1.000600300150075,0.9813472309472221
1.0143071535767882,0.9802653468532153
1.0280140070035018,0.9782313910421263
1.041720860430215,0.9758895921525903
1.0554277138569284,0.9770127227961058
1.0691345672836416,0.9798087149649203
1.0828414207103552,0.9840336404382278
1.0965482741370685,0.9866372524290474
1.1102551275637818,0.9897641751360796
1.123961980990495,0.996573541675338
1.1376688344172086,1.0023640603480886
1.1513756878439219,1.0067138277199164
1.1650825412706352,1.0121403278061667
1.1787893946973487,1.0162761588023894
1.192496248124062,1.0202378673395611
1.2062031015507753,1.0225693008878503
1.2199099549774886,1.0235968004258438
1.233616808404202,1.0231638247562578
1.2473236618309154,1.0204256425408438
1.2610305152576287,1.0182697988256553
1.274737368684342,1.0160736752928101
1.2884442221110555,1.0093404166647415
1.3021510755377688,1.0052455428749834
1.315857928964482,0.9997775544444906
1.3295647823911956,0.9939414882139093
1.3432716358179089,0.9892407882243314
1.3569784892446222,0.9836568705150733
1.3706853426713355,0.9810642392176411
1.384392196098049,0.9774858494997543
1.3980990495247623,0.9768651330352539
1.4118059029514756,0.9757331737273891
1.4255127563781889,0.9774129938148064
1.4392196098049024,0.9807621889527174
1.4529264632316157,0.9820328248633309
1.466633316658329,0.987732153677337
1.4803401700850425,0.9938140678611088
1.4940470235117558,0.9972133187218976
1.507753876938469,1.0035417414429741
1.5214607303651824,1.0104649913383197
1.5351675837918959,1.0142278445316872
1.5488744372186092,1.018691710968549
1.5625812906453225,1.0204177515764465
1.5762881440720358,1.0226774684717492
1.5899949974987493,1.0230350871652982
1.6037018509254626,1.021113243338835
1.6174087043521759,1.0216733676753216
1.6311155577788894,1.0176757477470002
1.6448224112056027,1.0126196811056765
1.658529264632316,1.0075476156284744
1.6722361180590293,1.0026770461840182
1.6859429714857428,0.9970412246011079
1.699649824912456,0.9922166733019069
1.7133566783391694,0.9861524073674416
1.7270635317658827,0.9836238872762076
1.7407703851925962,0.9800801397363638
1.7544772386193095,0.9770968471529
1.7681840920460228,0.9775449648776539
1.7818909454727363,0.9767433338450489
1.7955977988994496,0.978288653376908
1.8093046523261629,0.9826872423439684
1.8230115057528762,0.9860286544714505
1.8367183591795897,0.9900405053816997
1.850425212606303,0.9957575612466751
1.8641320660330163,1.0008062829770548
1.8778389194597296,1.0064373048336537
1.891545772886443,1.0111691393852242
1.9052526263131564,1.0167830941057991
1.9189594797398697,1.0201889930852852
1.9326663331665832,1.0226697134088536
1.9463731865932965,1.0218976175512438
1.9600800400200098,1.023389165886322
1.973786893446723,1.0208242466932038
1.9874937468734366,1.0184909954515238
2.00120060030015,1.0156001522380138
2.014907453726863,1.0114608185119356
2.0286143071535765,1.007066379733396
2.04232116058029,1.0005171930793966
2.0560280140070035,0.9956634481810951
2.069734867433717,0.9902017289285058
2.08344172086043,0.9839132213723935
2.0971485742871434,0.9822010103119606
2.1108554277138567,0.9785168274492445
2.12456228114057,0.9772895459145365
2.1382691345672833,0.9770505565150605
2.1519759879939966,0.9773143817140216
2.1656828414207103,0.9807322213358558
2.1793896948474236,0.9845251633394644
2.193096548274137,0.9864990077654385
2.20680340170085,0.9926451070911451
2.2205102551275635,0.9975426063210235
2.234217108554277,1.0016049196217267
2.24792396198099,1.0075468004777508
2.261630815407704,1.011820568797525
2.275337668834417,1.0181231140010008
2.2890445222611304,1.0211650166955728
2.3027513756878437,1.0217814510376115
2.316458229114557,1.0230639234350691
2.3301650825412703,1.0236045390407367
2.3438719359679836,1.0204944528003825
2.3575787893946973,1.0184160330522445
2.3712856428214106,1.0137669252193042
2.384992496248124,1.008613300479743
2.3986993496748372,1.0023052180403913
2.4124062031015505,0.999245298160789
2.426113056528264,0.9928283924600257
2.439819909954977,0.9865451200709106
2.4535267633816904,0.9841538294627238
2.467233616808404,0.9803783196030021
2.4809404702351174,0.9774170843026239
2.4946473236618307,0.9763278622436973
2.508354177088544,0.977401489349082
2.5220610305152573,0.978545466500215
2.5357678839419706,0.9811076299732274
2.549474737368684,0.9857615083523628
2.5631815907953976,0.988945434092122
2.576888444222111,0.9958844860263609
2.5905952976488242,1.000375021346214
2.6043021510755375,1.0067731771719277
2.618009004502251,1.010992018492814
2.631715857928964,1.0144702017411729
2.6454227113556774,1.0173093803528415
2.659129564782391,1.0204645465060487
2.6728364182091044,1.022910475171645
2.6865432716358177,1.0236097127565253
2.700250125062531,1.022573272202273
2.7139569784892443,1.0207465662358235
2.7276638319159576,1.0167786155191523
2.741370685342671,1.0111938941428753
2.755077538769384,1.008375793251399
2.768784392196098,1.0011282543504727
2.7824912456228112,0.9962616430436564
2.7961980990495245,0.9893107747788996
2.809904952476238,0.9868114587606838
2.823611805902951,0.9826740198458186
2.8373186593296644,0.9790821351796757
2.8510255127563777,0.9783626125387112
2.8647323661830915,0.9770501068996169
2.8784392196098048,0.9780294659868954
2.892146073036518,0.97979302156616
2.9058529264632313,0.9837532309104376
2.9195597798899446,0.9862393330556558
2.933266633316658,0.9907691430726028
2.9469734867433712,0.9968134214823089
2.960680340170085,1.0031957339160633
2.9743871935967983,1.0069038851247933
2.9880940470235116,1.0138677287835345
3.001800900450225,1.0167253575695518
3.015507753876938,1.0188817030806518
3.0292146073036514,1.0226397596611212
3.0429214607303647,1.0221994757249022
3.056628314157078,1.0231150790867798
3.0703351675837918,1.02219204162807
3.084042021010505,1.0189253236544915
3.0977488744372184,1.0137889180162805
3.1114557278639317,1.0107952706061876
3.125162581290645,1.0043781544668626
3.1388694347173582,0.9982015738986536
3.1525762881440715,0.9937117531101737
3.1662831415707853,0.9885574141608592
3.1799899949974986,0.9841767702038063
3.193696848424212,0.9814317057731081
3.207403701850925,0.978384671704649
3.2211105552776385,0.9778387951157349
3.2348174087043517,0.9754272920077935
3.248524262131065,0.9779301239342771
3.262231115557779,0.9804153359066664
3.275937968984492,0.9839210762766128
3.2896448224112054,0.9905073983963388
3.3033516758379187,0.9938901608866093
3.317058529264632,0.999323756267185
3.3307653826913453,1.0058977979420494
3.3444722361180586,1.0113833014746956
3.358179089544772,1.0140603303129652
3.3718859429714856,1.0190282927508825
3.385592796398199,1.0196563645871988
3.399299649824912,1.0235278895792517
3.4130065032516255,1.0227341253052482
3.4267133566783388,1.0214404084007116
3.440420210105052,1.0207588662300033
3.4541270635317654,1.0173491959935959
3.467833916958479,1.0129016341180357
3.4815407703851924,1.0068052577581377
3.4952476238119057,1.0009808795173547
3.508954477238619,0.9968690930980605
3.5226613306653323,0.993367829829183
3.5363681840920456,0.9867966172694208
3.550075037518759,0.9825100033842157
3.5637818909454726,0.9777719056677067
3.577488744372186,0.9767988495201358
3.591195597798899,0.9759808064906559
3.6049024512256125,0.977653426684801
3.6186093046523258,0.9803985897942311
3.632316158079039,0.981263478978372
3.6460230115057524,0.9861233270983368
3.659729864932466,0.9905440421088594
3.6734367183591794,0.9960779606417277
3.6871435717858927,1.0030164326152675
3.700850425212606,1.006068392305265
3.7145572786393193,1.012462738288301
3.7282641320660326,1.0161315442113414
3.741970985492746,1.0189431128949717
3.755677838919459,1.0225082310562155
3.769384692346173,1.0237382467826088
3.783091545772886,1.0232038056475015
3.7967983991995995,1.0208546697183458
3.810505252626313,1.0193574490758626
3.824212106053026,1.0161324553476965
3.8379189594797394,1.009705495619329
3.8516258129064527,1.0060905990218105
3.8653326663331664,1.0013454064183878
3.8790395197598797,0.9950422718739187
3.892746373186593,0.9890718258977343
3.9064532266133063,0.985237807419299
3.9201600800400196,0.9826625529845842
3.933866933466733,0.9781898487876721
3.947573786893446,0.9786008016556775
3.96128064032016,0.9776917281452927
3.974987493746873,0.9776199776648535
3.9886943471735865,0.9802163918941653
4.0024012006003,0.9837255445505405
4.016108054027013,0.9880492488126064
4.029814907453726,0.9951555157068995
4.04352176088044,0.9978421215283295
4.057228614307153,1.0037919413565424
4.070935467733866,1.010575681344547
4.08464232116058,1.0134762331579912
4.098349174587293,1.0181842162421024
4.112056028014007,1.0214227965406417
4.12576288144072,1.0230243147891258
4.139469734867434,1.024560232227291
4.153176588294147,1.0237275438928706
4.16688344172086,1.0208015223680391
4.1805902951475735,1.0178849743556129
4.194297148574287,1.013184346650629
4.208004002001,1.0106233921684624
4.221710855427713,1.004069356909472
4.235417708854427,0.9985081100780934
4.24912456228114,0.9937946856723437
4.262831415707853,0.9868266504501608
4.276538269134567,0.9833408218627803
4.29024512256128,0.9790001171622987
4.303951975987993,0.9784782951735618
4.317658829414707,0.9768144285617673
4.331365682841421,0.9763199197089312
4.345072536268134,0.9784406918725035
4.358779389694847,0.9833933665594291
4.3724862431215605,0.9848535834423391
4.386193096548274,0.9900826213924914
4.399899949974987,0.9957955065713929
4.4136068034017,1.0017929786700415
4.427313656828414,1.005796698488505
4.441020510255127,1.011471565072693
4.45472736368184,1.0159112380588808
4.468434217108554,1.0191877085853642
4.482141070535267,1.021375221992421
4.49584792396198,1.0232096402035522
4.5095547773886935,1.0222704988230442
4.523261630815408,1.0232407250827313
4.536968484242121,1.021463116743887
4.550675337668834,1.0156134700990416
4.5643821910955475,1.0107592502271658
4.578089044522261,1.0058990042362934
4.591795897948974,1.0014415319432113
4.605502751375687,0.9962190708836435
4.619209604802401,0.9902871910128402
4.632916458229114,0.9856155413622513
4.646623311655827,0.981755874221711
4.660330165082541,0.9782369712405489
4.674037018509254,0.9771037640845505
4.687743871935967,0.977212591774471
4.7014507253626805,0.9761940846323937
4.715157578789395,0.9794213327269842
4.728864432216108,0.9835664903757843
4.742571285642821,0.9859545754708209
4.756278139069535,0.9925183896404246
4.769984992496248,0.9998520935821278
4.783691845922961,1.0032602167556173
4.7973986993496744,1.0077353919011176
4.811105552776388,1.0137905688891389
4.824812406203101,1.0182175325094733
4.838519259629814,1.020659782445512
4.852226113056528,1.0238365191288448
4.865932966483241,1.0238094015105608
4.879639819909954,1.0232529359565967
4.8933466733366675,1.020194408607812
4.907053526763381,1.0183967119374786
4.920760380190095,1.0141599601489306
4.934467233616808,1.009014867049367
4.948174087043522,1.0043385870648975
4.961880940470235,0.9998114837274833
4.975587793896948,0.9937482795393077
4.9892946473236615,0.9893843567709524
5.003001500750375,0.9838656668058956
5.016708354177088,0.9812083205469014
5.030415207603801,0.9769127836217734
5.044122061030515,0.9759122978984379
5.057828914457228,0.977200032572272
5.071535767883941,0.978324973748611
5.0852426213106545,0.9802934246304357
5.098949474737368,0.9847140978979897
5.112656328164081,0.9868275340621948
5.126363181590795,0.994155234948882
5.140070035017509,1.0000546131730614
5.153776888444222,1.006563696439945
5.167483741870935,1.0103590916356464
5.1811905952976485,1.0149297076603077
5.194897448724362,1.0159899440684086
5.208604302151075,1.022370040390308
5.222311155577788,1.0236373543998611
5.236018009004502,1.0223507395712084
5.249724862431215,1.0213912803661802
5.263431715857928,1.019331276042502
5.2771385692846415,1.0166229457472091
5.290845422711355,1.011020387998816
5.304552276138068,1.0081613655436141
5.318259129564782,1.002347684974597
5.331965982991496,0.9967743286018633
5.345672836418209,0.9897104468544032
5.359379689844922,0.9860616455542789
5.3730865432716355,0.9819372102771611
5.386793396698349,0.9772095177121799
5.400500250125062,0.9771152718773546
5.414207103551775,0.9764937270241311
5.427913956978489,0.9774304065202964
5.441620810405202,0.9787885752761051
5.455327663831915,0.9826194277558531
5.4690345172586285,0.9868962410058782
5.482741370685342,0.9911697994357893
5.496448224112055,0.997882221509805
5.510155077538768,1.0005214225518546
5.523861930965483,1.0074984811759473
5.537568784392196,1.011361688256067
5.551275637818909,1.0173263033388587
5.5649824912456225,1.0204738131473514
5.578689344672336,1.0218366751502568
5.592396198099049,1.0242899489504007
5.606103051525762,1.0223442919105685
5.619809904952476,1.0226107628542007
5.633516758379189,1.0186128729587482
5.647223611805902,1.015218621333137
5.660930465232616,1.0097242414668153
5.674637318659329,1.0052455181580384
5.688344172086042,0.999657323379146
5.7020510255127554,0.9942055935639003
5.71575787893947,0.9896918298466088
5.729464732366183,0.9849306597627704
5.743171585792896,0.9811315543891078
5.7568784392196095,0.9785498506962784
5.770585292646323,0.976283906472829
5.784292146073036,0.9762350626612603
5.797998999499749,0.9789968205100702
5.811705852926463,0.9803652189318434
5.825412706353176,0.9833449240798524
5.839119559779889,0.9889138782770904
5.852826413206603,0.9930266470820736
5.866533266633316,0.9992020605096528
5.880240120060029,1.0049107835878117
5.8939469734867425,1.0097423162174155
5.907653826913456,1.0154372004858305
5.92136068034017,1.0183245744212766
5.935067533766883,1.0227691529375458
5.9487743871935965,1.0236623414794965
5.96248124062031,1.0233458707349037
5.976188094047023,1.0215065679275033
5.989894947473736,1.0195847631235808
6.00360180090045,1.0181182950585992
6.017308654327163,1.0128524184940666
6.031015507753876,1.008830094737982
6.04472236118059,1.004548604949526
6.058429214607303,0.9976683761896503
6.072136068034016,0.9919732605749999
6.0858429214607295,0.987466857920952
6.099549774887443,0.9808853702097853
6.113256628314156,0.9799243107309394
6.12696348174087,0.9772668348820387
6.1406703351675835,0.9780091827427385
6.154377188594297,0.9770071100231537
6.16808404202101,0.9781756130777012
6.181790895447723,0.9827327956751435
6.195497748874437,0.9850196465522691
6.20920460230115,0.9903305498521277
6.222911455727863,0.9960411475838288
6.236618309154577,1.0022879804398073
6.25032516258129,1.0067814046705612
6.264032016008003,1.0098747001197335
6.2777388694347165,1.0163064934760284
6.29144572286143,1.0199962454761236
6.305152576288143,1.0234302306042815
6.318859429714857,1.022529338486796
6.3325662831415706,1.0227281848233916
6.346273136568284,1.0219969658035817
6.359979989994997,1.0207998372027631
6.37368684342171,1.0164288378955766
6.387393696848424,1.0099604992452635
6.401100550275137,1.0061561866815671
6.41480740370185,1.0005373744672894
6.428514257128564,0.9958912385273636
6.442221110555277,0.9895540423308011
6.45592796398199,0.985169890912608
6.4696348174087035,0.9818124635847918
6.483341670835417,0.9776121420612649
6.49704852426213,0.9759890937315445
6.510755377688843,0.9754936403291504
6.524462231115558,0.9769533453066279
6.538169084542271,0.9820688444590114
6.551875937968984,0.9827294914874631
6.5655827913956974,0.9864929840636459
6.579289644822411,0.9931499759180594
6.592996498249124,0.9979027971494775
6.606703351675837,1.0034965910480327
6.620410205102551,1.0081712749922078
6.634117058529264,1.0134402537037865
6.647823911955977,1.0184959334830253
6.6615307653826905,1.0194239290675504
6.675237618809404,1.0222301662577202
6.688944472236117,1.0233876592416793
6.70265132566283,1.0224977801700486
6.716358179089544,1.0207141454523967
6.730065032516258,1.0177987955714565
6.743771885942971,1.0145812218588381
6.7574787393696845,1.0092903193882814
6.771185592796398,1.0023165115216914
6.784892446223111,1.000861635018317
6.798599299649824,0.9909441020470585
6.812306153076538,0.9879216149755273
6.826013006503251,0.9843907602833915
6.839719859929964,0.9800628426927078
6.8534267133566775,0.976808555916867
6.867133566783391,0.9774639692431499
6.880840420210104,0.9758155781753733
6.894547273636817,0.9782808217207882
6.908254127063531,0.9815218054306514
6.921960980490245,0.986934104056819
6.935667833916958,0.9903201142262147
6.9493746873436715,0.9952162703411941
6.963081540770385,1.0009155587517877
6.976788394197098,1.005629505590129
6.990495247623811,1.0099364747406507
7.004202101050525,1.0156915932671962
7.017908954477238,1.0186983936776266
7.031615807903951,1.020997467302741
7.0453226613306645,1.0232762839848943
7.059029514757378,1.022860266513895
7.072736368184091,1.0225609560868647
7.086443221610804,1.0206437286006098
7.100150075037518,1.0156420851169943
7.113856928464231,1.0125713719459568
7.127563781890945,1.0061927368740733
7.1412706353176585,1.000138676134094
7.154977488744372,0.9965241696345798
7.168684342171085,0.9900364645085817
7.182391195597798,0.9857271190086041
7.196098049024512,0.983165791465337
7.209804902451225,0.9781307032474774
7.223511755877938,0.9782118192622107
7.2372186093046516,0.9766010064749369
7.250925462731365,0.9770171120330478
7.264632316158078,0.9789223825756624
7.278339169584791,0.9834607473688001
7.292046023011505,0.9879515631081619
7.305752876438218,0.9930044465875326
7.319459729864932,0.9981506094837468
7.3331665832916455,1.0027287788581272
