time,flux
0.0,1.0111421899370399
0.013706853426713355,1.0061158780228954
0.02741370685342671,1.000262721175494
0.041120560280140064,0.9970569733245689
0.05482741370685342,0.9928563317265235
0.06853426713356678,0.9880331056489016
0.08224112056028013,0.9825303024457848
0.09594797398699349,0.9786811625869698
0.10965482741370684,0.9781559242984087
0.1233616808404202,0.9739497419762404
0.13706853426713356,0.9707601762391307
0.1507753876938469,0.9686739430626243
0.16448224112056026,0.9681082583526918
0.1781890945472736,0.9680055548576145
0.19189594797398699,0.9676471588343574
0.20560280140070034,0.9668661054874814
0.21930965482741369,0.9675056546046866
0.23301650825412704,0.969479574320602
0.2467233616808404,0.971919786914091
0.26043021510755376,0.9729196692085876
0.2741370685342671,0.97759577352285
0.28784392196098046,0.9807989985440939
0.3015507753876938,0.9849913001960937
0.31525762881440716,0.9889904272283094
0.3289644822411205,0.994228566588447
0.34267133566783387,0.9981495441347199
0.3563781890945472,1.0025949610294809
0.3700850425212606,1.0060112604058453
0.38379189594797397,1.0109187870909646
0.3974987493746873,1.0142206362743658
0.41120560280140067,1.0202595412742748
0.424912456228114,1.02134833884426
0.43861930965482737,1.0253084360061742
0.4523261630815407,1.028134250430975
0.46603301650825407,1.0307029800876415
0.4797398699349674,1.0326523312326596
0.4934467233616808,1.033573891253469
0.5071535767883941,1.0338324421489737
0.5208604302151075,1.0340545782075765
0.5345672836418208,1.033358653496053
0.5482741370685342,1.0324182591876558
0.5619809904952475,1.0279501483632287
0.5756878439219609,1.027429023643318
0.5893946973486743,1.0238594846053253
0.6031015507753876,1.0222165129915934
0.616808404202101,1.0170202453902384
0.6305152576288143,1.0145045308599903
0.6442221110555277,1.009062281653539
0.657928964482241,1.0040210816743416
0.6716358179089544,1.0011506363797211
0.6853426713356677,0.9964280001585344
0.6990495247623811,0.9906513908940058
0.7127563781890944,0.9878319587421266
0.7264632316158078,0.98193357782965
0.7401700850425212,0.9786848960607751
0.7538769384692345,0.9744771408180722
0.7675837918959479,0.9724344022972834
0.7812906453226612,0.9720843262557887
0.7949974987493746,0.9685665115714851
0.8087043521760879,0.9665174712921553
0.8224112056028013,0.9666351585412091
0.8361180590295146,0.970631511098816
0.849824912456228,0.9672405872599671
0.8635317658829413,0.9689417316476195
0.8772386193096547,0.9696723615042514
0.8909454727363681,0.9723385651189964
0.9046523261630814,0.9742825545880133
0.9183591795897948,0.9792484072883247
0.9320660330165081,0.9820754974021323
0.9457728864432215,0.9863288133230999
0.9594797398699348,0.9892481318124637
0.9731865932966483,0.9944766360092483
0.9868934467233615,0.9991252169640692
1.000600300150075,1.0021221986696869
1.0143071535767882,1.0074031719941472
1.0280140070035018,1.0131284956622264
1.041720860430215,1.0168133386863234
1.0554277138569284,1.019215504201419
1.0691345672836416,1.0228526634563297
1.0828414207103552,1.0258205741547037
1.0965482741370685,1.0299303614906647
1.1102551275637818,1.0321380014609793
1.123961980990495,1.0316921280419635
1.1376688344172086,1.0344938945194873
1.1513756878439219,1.0332399879897978
1.1650825412706352,1.0347143437459778
1.1787893946973487,1.0345492602757067
1.192496248124062,1.0309909795936685
1.2062031015507753,1.0293471616808438
1.2199099549774886,1.0268999206555094
1.233616808404202,1.0233828570438033
1.2473236618309154,1.019236040136995
1.2610305152576287,1.0162347182712448
1.274737368684342,1.0125242902954295
1.2884442221110555,1.0072616242198609
1.3021510755377688,1.003116857085402
1.315857928964482,0.9985784364153243
1.3295647823911956,0.9941837432758681
1.3432716358179089,0.9881657131422914
1.3569784892446222,0.9862406109095906
1.3706853426713355,0.9817252101786154
1.384392196098049,0.977816378730999
1.3980990495247623,0.9759787914055964
1.4118059029514756,0.9715349158922784
1.4255127563781889,0.9694855736623268
1.4392196098049024,0.9686584610574395
1.4529264632316157,0.9662921041704118
1.466633316658329,0.9655821350688859
1.4803401700850425,0.9670000274746237
1.4940470235117558,0.9664375803839983
1.507753876938469,0.9677939993898865
1.5214607303651824,0.972112967878068
1.5351675837918959,0.9735498003103051
1.5488744372186092,0.975168026865958
1.5625812906453225,0.9788739483960315
1.5762881440720358,0.9826844453410416
1.5899949974987493,0.9875147411816728
1.6037018509254626,0.9904319360006263
1.6174087043521759,0.994092723606552
1.6311155577788894,1.000576199962686
1.6448224112056027,1.004520419819352
1.658529264632316,1.0103001287014841
1.6722361180590293,1.012850393625807
1.6859429714857428,1.019169424864089
1.699649824912456,1.021410368932198
1.7133566783391694,1.025514479753774
1.7270635317658827,1.0272227069657762
1.7407703851925962,1.0303639843270895
1.7544772386193095,1.0310027383291478
1.7681840920460228,1.0339834361102032
1.7818909454727363,1.0339071592312055
1.7955977988994496,1.033691476811784
1.8093046523261629,1.0347214767354103
1.8230115057528762,1.0325627943130196
1.8367183591795897,1.0304958467102057
1.850425212606303,1.027345942946755
1.8641320660330163,1.0240691436661278
1.8778389194597296,1.0221819716181009
1.891545772886443,1.0178830953255371
1.9052526263131564,1.014941965843303
1.9189594797398697,1.0104304400449322
1.9326663331665832,1.0042559654040941
1.9463731865932965,1.0014613234771979
1.9600800400200098,0.996377973654399
1.973786893446723,0.9927786546626111
1.9874937468734366,0.9881109933659179
2.00120060030015,0.9845136951920787
2.014907453726863,0.9800699191290375
2.0286143071535765,0.9779886790892245
2.04232116058029,0.9736606294049935
2.0560280140070035,0.9711892808235139
2.069734867433717,0.9685738588861637
2.08344172086043,0.9678281278411217
2.0971485742871434,0.9657350201530367
2.1108554277138567,0.9662410829639339
2.12456228114057,0.9659861721328953
2.1382691345672833,0.9663200016116119
2.1519759879939966,0.9684604481535991
2.1656828414207103,0.969590329584353
2.1793896948474236,0.973906542455147
2.193096548274137,0.9770847352417568
2.20680340170085,0.9791833579445571
2.2205102551275635,0.982776818534722
2.234217108554277,0.9884239112946722
2.24792396198099,0.9922674600661213
2.261630815407704,0.9974648379585745
2.275337668834417,1.0022224817593466
2.2890445222611304,1.0070519024802917
2.3027513756878437,1.0104974239892717
2.316458229114557,1.0151101788449142
2.3301650825412703,1.0191879475045575
2.3438719359679836,1.0213545012557372
2.3575787893946973,1.0265886514135214
2.3712856428214106,1.0284678591531753
2.384992496248124,1.0298582446415327
2.3986993496748372,1.0324428845834626
2.4124062031015505,1.0339617283736966
2.426113056528264,1.03429736930723
2.439819909954977,1.0335721528048563
2.4535267633816904,1.0331650791136786
2.467233616808404,1.031380947919272
2.4809404702351174,1.0306208385904425
2.4946473236618307,1.0286796790627761
2.508354177088544,1.0240903821798601
2.5220610305152573,1.0203720823179894
2.5357678839419706,1.0174177071685597
2.549474737368684,1.0128664689534648
2.5631815907953976,1.0095815488035518
2.576888444222111,1.0033056667061893
2.5905952976488242,1.0000846732673838
2.6043021510755375,0.9954258000837062
2.618009004502251,0.9916925114932078
2.631715857928964,0.9864622205007222
2.6454227113556774,0.9824274101806526
2.659129564782391,0.9770906893283183
2.6728364182091044,0.9743263890318019
2.6865432716358177,0.9717419220476603
2.700250125062531,0.9709134951104526
2.7139569784892443,0.9673959085764969
2.7276638319159576,0.9669116807413684
2.741370685342671,0.9650697118215691
2.755077538769384,0.9665600856434825
2.768784392196098,0.966335010758501
2.7824912456228112,0.9686246578343892
2.7961980990495245,0.9687956973817725
2.809904952476238,0.9710808262461658
2.823611805902951,0.9747637736043574
2.8373186593296644,0.978028533724932
2.8510255127563777,0.9800706051445156
2.8647323661830915,0.9842719991959525
2.8784392196098048,0.9894038783707461
2.892146073036518,0.9945045461726033
2.9058529264632313,0.9980624223906152
2.9195597798899446,1.0025942307234905
2.933266633316658,1.0063194678026872
2.9469734867433712,1.0131563316667613
2.960680340170085,1.0153791488546033
2.9743871935967983,1.0183346597768452
2.9880940470235116,1.0242732771114798
3.001800900450225,1.026002040716969
3.015507753876938,1.0300417327666294
3.0292146073036514,1.033033137011941
3.0429214607303647,1.0339853487557038
3.056628314157078,1.034786744174743
3.0703351675837918,1.0341862558428245
3.084042021010505,1.0346541392864383
3.0977488744372184,1.033571606898049
3.1114557278639317,1.0320671115674052
3.125162581290645,1.029056781052114
3.1388694347173582,1.0257262999635706
3.1525762881440715,1.0235600595998056
3.1662831415707853,1.01926278932001
3.1799899949974986,1.0174989084496848
3.193696848424212,1.011685574081692
3.207403701850925,1.0079721167954492
3.2211105552776385,1.0025868919259957
3.2348174087043517,0.9979624044736193
3.248524262131065,0.9947467041999319
3.262231115557779,0.9887721046894039
3.275937968984492,0.984304579117032
3.2896448224112054,0.9814465824426615
3.3033516758379187,0.9756857427783251
3.317058529264632,0.972862459720512
3.3307653826913453,0.9707228342572162
3.3444722361180586,0.9675375481913748
3.358179089544772,0.9686794721886021
3.3718859429714856,0.9658934649041135
3.385592796398199,0.9670940939730135
3.399299649824912,0.9658055163316809
3.4130065032516255,0.9658864675515004
3.4267133566783388,0.9676457902376635
3.440420210105052,0.968746873302799
3.4541270635317654,0.9706359255672445
3.467833916958479,0.9748650371870008
3.4815407703851924,0.979003972207843
3.4952476238119057,0.9819870222804427
3.508954477238619,0.9855386096985984
3.5226613306653323,0.9918264420547556
3.5363681840920456,0.9950158546573981
3.550075037518759,1.000231092489313
3.5637818909454726,1.0047055056070173
3.577488744372186,1.009028379012628
3.591195597798899,1.0127624921281926
3.6049024512256125,1.0181632783233072
3.6186093046523258,1.021098430285321
3.632316158079039,1.0253623715579672
3.6460230115057524,1.0275952946148785
3.659729864932466,1.030355452462379
3.6734367183591794,1.0319541796121472
3.6871435717858927,1.0342342785878906
3.700850425212606,1.0341113645422304
3.7145572786393193,1.036017046770215
3.7282641320660326,1.0352250355358694
3.741970985492746,1.0325387912510449
3.755677838919459,1.032206692681508
3.769384692346173,1.0277430801849137
3.783091545772886,1.0264547022282413
3.7967983991995995,1.02255262983955
3.810505252626313,1.0197359095622864
3.824212106053026,1.0139865101178003
3.8379189594797394,1.009161727072449
3.8516258129064527,1.0054513173122337
3.8653326663331664,1.0032794606051918
3.8790395197598797,0.9973659783634101
3.892746373186593,0.9929140730859817
3.9064532266133063,0.9865678287721222
3.9201600800400196,0.9818046072966851
3.933866933466733,0.9802880768765604
3.947573786893446,0.9764574061434071
3.96128064032016,0.9736538722782568
3.974987493746873,0.9700863497922849
3.9886943471735865,0.9676675838745771
4.0024012006003,0.9656412258103633
4.016108054027013,0.9654733852434418
4.029814907453726,0.9665271233059927
4.04352176088044,0.9669839459083395
4.057228614307153,0.9659231317416916
4.070935467733866,0.968351029860943
4.08464232116058,0.9693840973403646
4.098349174587293,0.9729907170784758
4.112056028014007,0.9761492694424776
4.12576288144072,0.9807838027957139
4.139469734867434,0.9832899676036125
4.153176588294147,0.9887292498679728
4.16688344172086,0.9914858642204235
4.1805902951475735,0.9964115946438455
4.194297148574287,1.002474799113536
4.208004002001,1.0055488634645984
4.221710855427713,1.0118816766334497
4.235417708854427,1.0149500903646467
4.24912456228114,1.0195846588745658
4.262831415707853,1.0232586380596504
4.276538269134567,1.026704193352007
4.29024512256128,1.0292235971105734
4.303951975987993,1.0330118564080577
4.317658829414707,1.0325843174733553
4.331365682841421,1.034009305913224
4.345072536268134,1.035079521582307
4.358779389694847,1.034426463176726
4.3724862431215605,1.0341316625204213
4.386193096548274,1.0312282689369638
4.399899949974987,1.0299860720644576
4.4136068034017,1.0278002657474972
4.427313656828414,1.0264358122905408
4.441020510255127,1.0227901952281055
4.45472736368184,1.0167030819375922
4.468434217108554,1.0141571713801223
4.482141070535267,1.0087728036744774
4.49584792396198,1.0040953520207092
4.5095547773886935,0.9998345408911228
4.523261630815408,0.9940551137211947
4.536968484242121,0.9899517167961757
4.550675337668834,0.9873259118460904
4.5643821910955475,0.9822349054280345
4.578089044522261,0.9788679810344447
4.591795897948974,0.9763396815445539
4.605502751375687,0.9694413396423177
4.619209604802401,0.9698063403038886
4.632916458229114,0.9668108386921498
4.646623311655827,0.9658498718805022
4.660330165082541,0.9652106667048104
4.674037018509254,0.9645345933316933
4.687743871935967,0.9652807158295517
4.7014507253626805,0.9660528303906839
4.715157578789395,0.9676501041823802
4.728864432216108,0.9708694869533767
4.742571285642821,0.973384358011729
4.756278139069535,0.9765563507125333
4.769984992496248,0.9792037968902796
4.783691845922961,0.98651168457251
4.7973986993496744,0.9882680077948963
4.811105552776388,0.9930045254998024
4.824812406203101,0.9998726093655813
4.838519259629814,1.0023927995522668
4.852226113056528,1.0057440445222892
4.865932966483241,1.0119107138897119
4.879639819909954,1.0165708236300746
4.8933466733366675,1.0203279612931442
4.907053526763381,1.0237121500486825
4.920760380190095,1.026341887571882
4.934467233616808,1.0303297407039056
4.948174087043522,1.0317882081442677
4.961880940470235,1.0347497522128715
4.975587793896948,1.0349821649964037
4.9892946473236615,1.0346050507747775
5.003001500750375,1.03570837803199
5.016708354177088,1.0347532262699857
5.030415207603801,1.0332102146679272
5.044122061030515,1.0294822732167448
5.057828914457228,1.028709187811661
5.071535767883941,1.0240895034535318
5.0852426213106545,1.0211222501007389
5.098949474737368,1.0162308860771279
5.112656328164081,1.0134241618667856
5.126363181590795,1.008645981354064
5.140070035017509,1.0026453034402247
5.153776888444222,0.9980103861541745
5.167483741870935,0.9934501925476549
5.1811905952976485,0.9885640321489506
5.194897448724362,0.9859565669598926
5.208604302151075,0.9795522787770443
5.222311155577788,0.9762764044865431
5.236018009004502,0.9742214502572029
5.249724862431215,0.972207866571308
5.263431715857928,0.969207497723157
5.2771385692846415,0.965674686929927
5.290845422711355,0.9655423777951374
5.304552276138068,0.9662097455420946
5.318259129564782,0.9646147367016752
5.331965982991496,0.9644152276448017
5.345672836418209,0.967473116958072
5.359379689844922,0.9690191627837644
5.3730865432716355,0.9696723758874348
5.386793396698349,0.9740371371633627
5.400500250125062,0.9773170542207473
5.414207103551775,0.9814478361862216
5.427913956978489,0.9850122649990114
5.441620810405202,0.9912200596187418
5.455327663831915,0.99542441942162
5.4690345172586285,0.9998211457544478
5.482741370685342,1.0042116192075745
5.496448224112055,1.0088593745549077
5.510155077538768,1.012922452933715
5.523861930965483,1.0171795553713523
5.537568784392196,1.0203963477593636
5.551275637818909,1.0262488467461797
5.5649824912456225,1.0280617859707026
5.578689344672336,1.0320528481476772
5.592396198099049,1.0325011094684695
5.606103051525762,1.0341512970037685
5.619809904952476,1.0352705221106997
5.633516758379189,1.034558276573703
5.647223611805902,1.033915161027965
5.660930465232616,1.033997345892066
5.674637318659329,1.0307917261272133
5.688344172086042,1.0302185165151834
5.7020510255127554,1.0272272971781253
5.71575787893947,1.0230214845580194
5.729464732366183,1.0207164705519336
5.743171585792896,1.0157679672134017
5.7568784392196095,1.0110210574844702
5.770585292646323,1.0071062671511546
5.784292146073036,1.0022720973874824
5.797998999499749,0.9984500779748747
5.811705852926463,0.9929030047318131
5.825412706353176,0.9876661144135066
5.839119559779889,0.9836347368617342
5.852826413206603,0.9775893348549858
5.866533266633316,0.9766605919650765
5.880240120060029,0.9741053367233161
5.8939469734867425,0.9717829700506223
5.907653826913456,0.9689935158948467
5.92136068034017,0.9664177378304287
5.935067533766883,0.9646902224504937
5.9487743871935965,0.9653616593050193
5.96248124062031,0.9647558880791466
5.976188094047023,0.9650813557305712
5.989894947473736,0.9668364045854001
6.00360180090045,0.969404551306308
6.017308654327163,0.973326807263603
6.031015507753876,0.9746417656493692
6.04472236118059,0.9794877097740126
6.058429214607303,0.9820727870992018
6.072136068034016,0.9883514692809101
6.0858429214607295,0.9923707808625021
6.099549774887443,0.9961702431363172
6.113256628314156,1.0002707802715398
6.12696348174087,1.0061836288365993
6.1406703351675835,1.0102039154845608
6.154377188594297,1.014583069877052
6.16808404202101,1.0191522811359048
6.181790895447723,1.0245262579143881
6.195497748874437,1.0267955379893547
6.20920460230115,1.0306810287718693
6.222911455727863,1.0306051125735542
6.236618309154577,1.0334734761950917
6.25032516258129,1.0358454048209107
6.264032016008003,1.0354363515452991
6.2777388694347165,1.035332899825246
6.29144572286143,1.034594370656798
6.305152576288143,1.0329130884526005
6.318859429714857,1.03287705953088
6.3325662831415706,1.0279066586465095
6.346273136568284,1.024039036448998
6.359979989994997,1.0229429576670692
6.37368684342171,1.0175975693408226
6.387393696848424,1.0135660130755382
6.401100550275137,1.0094682035401714
6.41480740370185,1.0058105586103085
6.428514257128564,1.0002117675059292
6.442221110555277,0.995641569305049
6.45592796398199,0.9904858049177077
6.4696348174087035,0.9861950312360191
6.483341670835417,0.9808874015198882
6.49704852426213,0.9785085625365225
6.510755377688843,0.9738244266084869
6.524462231115558,0.9711891732983421
6.538169084542271,0.9683179945128436
6.551875937968984,0.9676873280904981
6.5655827913956974,0.9666186747262421
6.579289644822411,0.9635351143606651
6.592996498249124,0.9647808851517755
6.606703351675837,0.9649430245637627
6.620410205102551,0.9670503812765178
6.634117058529264,0.9666965380703767
6.647823911955977,0.9696152490726959
6.6615307653826905,0.9723442062191601
6.675237618809404,0.9766434376182314
6.688944472236117,0.9804280172867489
6.70265132566283,0.9841529470867416
6.716358179089544,0.9888580814463007
6.730065032516258,0.9929938028979517
6.743771885942971,0.9980275511208245
6.7574787393696845,1.0015008706511903
6.771185592796398,1.007733243790597
6.784892446223111,1.0130340960045012
6.798599299649824,1.015733129416387
6.812306153076538,1.0203606941061176
6.826013006503251,1.0232048065102697
6.839719859929964,1.0275595629206198
6.8534267133566775,1.0289901773964885
6.867133566783391,1.0323307813902
6.880840420210104,1.0341954559198294
6.894547273636817,1.0362407939105074
6.908254127063531,1.0358408246625868
6.921960980490245,1.035777510734517
6.935667833916958,1.0340671357517024
6.9493746873436715,1.0322013241249453
6.963081540770385,1.0309009269809921
6.976788394197098,1.0270024960698354
6.990495247623811,1.0262676223640235
7.004202101050525,1.0223857691471332
7.017908954477238,1.016412724734911
7.031615807903951,1.011770510193411
7.0453226613306645,1.0095462612865438
7.059029514757378,1.004290600437862
7.072736368184091,0.9989443300648133
7.086443221610804,0.9938711372829154
7.100150075037518,0.9898859512032723
7.113856928464231,0.9853660737969729
7.127563781890945,0.9800330288500662
7.1412706353176585,0.9765442507193972
7.154977488744372,0.9726068987320127
7.168684342171085,0.9700390335714396
7.182391195597798,0.9700486494569077
7.196098049024512,0.9657444236785295
7.209804902451225,0.9648085391759585
7.223511755877938,0.9644980421638765
7.2372186093046516,0.9640899009814214
7.250925462731365,0.9631523793192599
7.264632316158078,0.9661007120325118
7.278339169584791,0.9680699733305881
7.292046023011505,0.9714240396725778
7.305752876438218,0.9729701252259023
7.319459729864932,0.9780491574553171
7.3331665832916455,0.9811652438693277
7.346873436718359,0.986644984196726
