time,flux
0.0,0.9582977353214623
0.013706853426713355,0.9661515974555331
0.02741370685342671,0.9702417577139446
0.041120560280140064,0.9742957828497465
0.05482741370685342,0.9800220820255059
0.06853426713356678,0.9881650187436906
0.08224112056028013,0.9940096053859816
0.09594797398699349,0.9996222456132337
0.10965482741370684,1.005246235367801
0.1233616808404202,1.0124733948945166
0.13706853426713356,1.0179288636951163
0.1507753876938469,1.0215995389327697
0.16448224112056026,1.0245896404143775
0.1781890945472736,1.0273208081269345
0.19189594797398699,1.0290007347622265
0.20560280140070034,1.0295826211271524
0.21930965482741369,1.0309941143717087
0.23301650825412704,1.0302803407292136
0.2467233616808404,1.0272371407253964
0.26043021510755376,1.0244467219095579
0.2741370685342671,1.024926915427432
0.28784392196098046,1.0203709523046298
0.3015507753876938,1.0185448341312304
0.31525762881440716,1.0136744040816683
0.3289644822411205,1.0122794419061591
0.34267133566783387,1.007945889729019
0.3563781890945472,1.0062416196439494
0.3700850425212606,1.0040545178135372
0.38379189594797397,1.0015624974977249
0.3974987493746873,0.9978041180050304
0.41120560280140067,0.9955985262106418
0.424912456228114,0.9968296237997287
0.43861930965482737,0.9973534632483185
0.4523261630815407,0.9982099276559677
0.46603301650825407,1.0001505559445742
0.4797398699349674,1.0023777229313513
0.4934467233616808,1.003280001307945
0.5071535767883941,1.0048313642500384
0.5208604302151075,1.0079273957632562
0.5345672836418208,1.011436347866455
0.5482741370685342,1.0115835723256565
0.5619809904952475,1.01424758688196
0.5756878439219609,1.0175814966850065
0.5893946973486743,1.0176101626788239
0.6031015507753876,1.0182383931703474
0.616808404202101,1.0198343315723137
0.6305152576288143,1.0184266363488108
0.6442221110555277,1.0140956327245734
0.657928964482241,1.0143632998208199
0.6716358179089544,1.0122556763926103
0.6853426713356677,1.0095838822410983
0.6990495247623811,1.0030766163992555
0.7127563781890944,1.0009027984665526
0.7264632316158078,0.9953220576461549
0.7401700850425212,0.9897695472502239
0.7538769384692345,0.9885661739844679
0.7675837918959479,0.9804837334571466
0.7812906453226612,0.976005497118041
0.7949974987493746,0.9699827615500481
0.8087043521760879,0.9662839640644503
0.8224112056028013,0.9622072168973923
0.8361180590295146,0.9605953567302117
0.849824912456228,0.9556843121572698
0.8635317658829413,0.9540252596311832
0.8772386193096547,0.9535382986924222
0.8909454727363681,0.9542301350211038
0.9046523261630814,0.9544789258875145
0.9183591795897948,0.9543161747253247
0.9320660330165081,0.9595586179525755
0.9457728864432215,0.9628800739800704
0.9594797398699348,0.9691692916574854
0.9731865932966483,0.9730298252990708
0.9868934467233615,0.9803132214605794
1.000600300150075,0.9850754511782553
1.0143071535767882,0.992833853933363
1.0280140070035018,0.9996653058607023
1.041720860430215,1.0088370883103739
1.0554277138569284,1.0127651280171477
1.0691345672836416,1.022037191901357
1.0828414207103552,1.0270640337109507
1.0965482741370685,1.035278125473143
1.1102551275637818,1.0389700811320963
1.123961980990495,1.0432654093299216
1.1376688344172086,1.0467144402504764
1.1513756878439219,1.0491922776795992
1.1650825412706352,1.053130602722191
1.1787893946973487,1.0534501002537253
1.192496248124062,1.0530939759054563
1.2062031015507753,1.0508717237206653
1.2199099549774886,1.0494663171855552
1.233616808404202,1.046959260978988
1.2473236618309154,1.0410636870861083
1.2610305152576287,1.0403519771532501
1.274737368684342,1.034623487973956
1.2884442221110555,1.0282826748087188
1.3021510755377688,1.0248275761552095
1.315857928964482,1.0193501308897828
1.3295647823911956,1.0117567097333848
1.3432716358179089,1.0046168987602684
1.3569784892446222,0.9980561147450683
1.3706853426713355,0.9932277606495911
1.384392196098049,0.9849038176264072
1.3980990495247623,0.9812204791440604
1.4118059029514756,0.9766099130627413
1.4255127563781889,0.971074400017709
1.4392196098049024,0.9686403435257485
1.4529264632316157,0.9632554473990687
1.466633316658329,0.9630998224734942
1.4803401700850425,0.9633837299996856
1.4940470235117558,0.9585454559692262
1.507753876938469,0.9614961781509974
1.5214607303651824,0.9629920339898004
1.5351675837918959,0.9649743881761872
1.5488744372186092,0.9667997647910409
1.5625812906453225,0.9691687082181878
1.5762881440720358,0.9729650496561095
1.5899949974987493,0.974842210913048
1.6037018509254626,0.9797907044857423
1.6174087043521759,0.9829826758337242
1.6311155577788894,0.9879967582456961
1.6448224112056027,0.9932659944703718
1.658529264632316,0.9932394708134256
1.6722361180590293,1.0005153644277602
1.6859429714857428,1.0021190780983988
1.699649824912456,1.0035283813895393
1.7133566783391694,1.0069648202217985
1.7270635317658827,1.008431547228662
1.7407703851925962,1.0095585480873162
1.7544772386193095,1.008923009559343
1.7681840920460228,1.0097035732419166
1.7818909454727363,1.0093073611676937
1.7955977988994496,1.0079663735345887
1.8093046523261629,1.0083720356539903
1.8230115057528762,1.0060563567187426
1.8367183591795897,1.0045026197445317
1.850425212606303,1.0021018978284513
1.8641320660330163,1.0033045700250236
1.8778389194597296,0.998435572049331
1.891545772886443,0.998906060400086
1.9052526263131564,0.9978952087263646
1.9189594797398697,0.9963863944632095
1.9326663331665832,0.9945386253010834
1.9463731865932965,0.9971845142533696
1.9600800400200098,0.9977707673142896
1.973786893446723,0.9996988711120729
1.9874937468734366,1.000643464046128
2.00120060030015,1.003662169657334
2.014907453726863,1.0067882985278052
2.0286143071535765,1.0101211659060654
2.04232116058029,1.0141718384355103
2.0560280140070035,1.0166438244206575
2.069734867433717,1.0199193166217233
2.08344172086043,1.0229468367365397
2.0971485742871434,1.0261246800583679
2.1108554277138567,1.0302180357504234
2.12456228114057,1.0302662552682633
2.1382691345672833,1.033188681114433
2.1519759879939966,1.036954730050734
2.1656828414207103,1.0351902704026479
2.1793896948474236,1.0362909760965724
2.193096548274137,1.0350964239906855
2.20680340170085,1.030525426993023
2.2205102551275635,1.0302674562544147
2.234217108554277,1.0246024879896678
2.24792396198099,1.020871590261791
2.261630815407704,1.0167614938282863
2.275337668834417,1.0091033326335863
2.2890445222611304,1.001500355670763
2.3027513756878437,0.9935492802476704
2.316458229114557,0.9870997833692128
2.3301650825412703,0.9810099558754828
2.3438719359679836,0.9733797903092068
2.3575787893946973,0.9683504228900128
2.3712856428214106,0.9613340147358481
2.384992496248124,0.9559572027919814
2.3986993496748372,0.9513692717099643
2.4124062031015505,0.9486284661213628
2.426113056528264,0.9473435310947608
2.439819909954977,0.9432088287759353
2.4535267633816904,0.9442579651758827
2.467233616808404,0.9430648994115295
2.4809404702351174,0.9475897181600825
2.4946473236618307,0.9503438708107906
2.508354177088544,0.951318495269942
2.5220610305152573,0.961073469258651
2.5357678839419706,0.9650363020667263
2.549474737368684,0.969464135267342
2.5631815907953976,0.978035483525925
2.576888444222111,0.9856543685631596
2.5905952976488242,0.9948361701513174
2.6043021510755375,1.0004151833351844
2.618009004502251,1.0092779326921795
2.631715857928964,1.014235583949797
2.6454227113556774,1.023637208288871
2.659129564782391,1.0298870079898996
2.6728364182091044,1.0374195373800865
2.6865432716358177,1.0374817964856689
2.700250125062531,1.0414351230318801
2.7139569784892443,1.0445314324543098
2.7276638319159576,1.0470069493575236
2.741370685342671,1.0483666509615426
2.755077538769384,1.0489253862561467
2.768784392196098,1.0469168490003085
2.7824912456228112,1.0456558493332635
2.7961980990495245,1.0425557293305578
2.809904952476238,1.0392066425511355
2.823611805902951,1.035553963529773
2.8373186593296644,1.0318201462266718
2.8510255127563777,1.0248107645556803
2.8647323661830915,1.022897563495862
2.8784392196098048,1.0167395775022068
2.892146073036518,1.0105322907156795
2.9058529264632313,1.0066587628879473
2.9195597798899446,1.0039493826639891
2.933266633316658,0.9970380547927636
2.9469734867433712,0.9940782886480448
2.960680340170085,0.9916228913593907
2.9743871935967983,0.9887959311884494
2.9880940470235116,0.9877359836960663
3.001800900450225,0.9839159859571146
3.015507753876938,0.9823791733076307
3.0292146073036514,0.9809395104717322
3.0429214607303647,0.9790638033984759
3.056628314157078,0.9790486728513741
3.0703351675837918,0.9814250321121797
3.084042021010505,0.9822321322401172
3.0977488744372184,0.9813492794092442
3.1114557278639317,0.9830420522889768
3.125162581290645,0.9857694083142516
3.1388694347173582,0.9874109291016654
3.1525762881440715,0.9913380120546016
3.1662831415707853,0.9916544250689323
3.1799899949974986,0.9929664224040283
3.193696848424212,0.9955870347231905
3.207403701850925,0.994672170707042
3.2211105552776385,0.9993627801581705
3.2348174087043517,0.9951950022463841
3.248524262131065,0.9969128492086173
3.262231115557779,0.9954595126073251
3.275937968984492,0.99526502023941
3.2896448224112054,0.9942508502768632
3.3033516758379187,0.9923217251329062
3.317058529264632,0.9939552269332355
3.3307653826913453,0.9882958401565884
3.3444722361180586,0.9908855380864815
3.358179089544772,0.9870484380449607
3.3718859429714856,0.9854156258743072
3.385592796398199,0.983281917593862
3.399299649824912,0.9838146761921059
3.4130065032516255,0.9832446126560074
3.4267133566783388,0.9830805386011171
3.440420210105052,0.9807560320481954
3.4541270635317654,0.9817415424005684
3.467833916958479,0.9829066831068399
3.4815407703851924,0.9840649309799187
3.4952476238119057,0.9868324457068384
3.508954477238619,0.9870904520088531
3.5226613306653323,0.9930675924494101
3.5363681840920456,0.9961908838013868
3.550075037518759,0.9989335683255902
3.5637818909454726,1.005213783596545
3.577488744372186,1.0105656657483166
3.591195597798899,1.0145027167828786
3.6049024512256125,1.0193616974011326
3.6186093046523258,1.0228233835072864
3.632316158079039,1.0272162097186037
3.6460230115057524,1.035262988931019
3.659729864932466,1.0385923164793152
3.6734367183591794,1.0405794726347657
3.6871435717858927,1.0461198540781025
3.700850425212606,1.0481491577195723
3.7145572786393193,1.0472125718459262
3.7282641320660326,1.049667028718362
3.741970985492746,1.0467194290008859
3.755677838919459,1.047758780098583
3.769384692346173,1.0454976079850646
3.783091545772886,1.0404669398066526
3.7967983991995995,1.036685782466075
3.810505252626313,1.0295746523119118
3.824212106053026,1.027724191285933
3.8379189594797394,1.0174317904524346
3.8516258129064527,1.0098703462396097
3.8653326663331664,1.0019257921526805
3.8790395197598797,0.9931305566424912
3.892746373186593,0.9854232833842695
3.9064532266133063,0.9804096693984548
3.9201600800400196,0.9701407049342922
3.933866933466733,0.9656879802206332
3.947573786893446,0.9605284083956805
3.96128064032016,0.9550654686166914
3.974987493746873,0.9494289802651628
3.9886943471735865,0.945766607837748
4.0024012006003,0.9429503649837636
4.016108054027013,0.9417885458674307
4.029814907453726,0.9427002129532389
4.04352176088044,0.9446261387925644
4.057228614307153,0.9485068865801017
4.070935467733866,0.9495411163541461
4.08464232116058,0.9545585704016208
4.098349174587293,0.960559107492395
4.112056028014007,0.9667969800148539
4.12576288144072,0.9724116053366596
4.139469734867434,0.9801858583182419
4.153176588294147,0.9896064335515128
4.16688344172086,0.9949448542881097
4.1805902951475735,1.0000234054103554
4.194297148574287,1.007519509590418
4.208004002001,1.015123711790587
4.221710855427713,1.0193069379293602
4.235417708854427,1.0240206471784992
4.24912456228114,1.0290894158043966
4.262831415707853,1.0336731795721381
4.276538269134567,1.0362513222527159
4.29024512256128,1.0344719707150827
4.303951975987993,1.0347864653310663
4.317658829414707,1.0340231485068623
4.331365682841421,1.0339505505797295
4.345072536268134,1.0332796789986405
4.358779389694847,1.0305847988873773
4.3724862431215605,1.026003058345536
4.386193096548274,1.0250628592490891
4.399899949974987,1.022260830360594
4.4136068034017,1.0175283005466145
4.427313656828414,1.0136985683538164
4.441020510255127,1.010797044503153
4.45472736368184,1.0074080604316002
4.468434217108554,1.0040727093033834
4.482141070535267,1.0014288302597616
4.49584792396198,1.0003217786504024
4.5095547773886935,0.9976743782439569
4.523261630815408,0.9967059908308843
4.536968484242121,0.9980833004070235
4.550675337668834,0.9958528245417553
4.5643821910955475,0.9892238880256141
4.578089044522261,0.9978629048463288
4.591795897948974,0.9984928196458306
4.605502751375687,1.0019286886236862
4.619209604802401,1.0019083319541795
4.632916458229114,1.0036645154092818
4.646623311655827,1.0048204776919685
4.660330165082541,1.0086116917122767
4.674037018509254,1.0075503511161925
4.687743871935967,1.0090321494330905
4.7014507253626805,1.0081251837444491
4.715157578789395,1.0093855688598499
4.728864432216108,1.008384530750282
4.742571285642821,1.008262365558383
4.756278139069535,1.0059079922705714
4.769984992496248,1.0023558916133417
4.783691845922961,1.0027403144228482
4.7973986993496744,0.9993659701997448
4.811105552776388,0.9954097775504768
4.824812406203101,0.9910686619328088
4.838519259629814,0.988919112699773
4.852226113056528,0.9848035890080008
4.865932966483241,0.9819464935321296
4.879639819909954,0.9759124874132474
4.8933466733366675,0.9766698446346297
4.907053526763381,0.9707801132723003
4.920760380190095,0.9701262969907017
4.934467233616808,0.9673595613983063
4.948174087043522,0.9643066785006128
4.961880940470235,0.9642396246056408
4.975587793896948,0.961167410937357
4.9892946473236615,0.9616711144339082
5.003001500750375,0.9651640788837742
5.016708354177088,0.9633549662025535
5.030415207603801,0.9680850280670719
5.044122061030515,0.9718838082040585
5.057828914457228,0.9756998211683723
5.071535767883941,0.9775021799550901
5.0852426213106545,0.981742231336414
5.098949474737368,0.9895268318964744
5.112656328164081,0.9949915049024632
5.126363181590795,1.0006493712840197
5.140070035017509,1.0065609480729591
5.153776888444222,1.0126355406141
5.167483741870935,1.0191191849749082
5.1811905952976485,1.0261276615639576
5.194897448724362,1.0321330222716194
5.208604302151075,1.0381769440192983
5.222311155577788,1.0403549341805638
5.236018009004502,1.0464406075961454
5.249724862431215,1.0470955074168558
5.263431715857928,1.050979198039211
5.2771385692846415,1.0527904154865617
5.290845422711355,1.0539426035741992
5.304552276138068,1.054008385092385
5.318259129564782,1.0493993433335853
5.331965982991496,1.0494214901235264
5.345672836418209,1.0455497361341528
5.359379689844922,1.0411784141621099
5.3730865432716355,1.036157223547883
5.386793396698349,1.0306368520938516
5.400500250125062,1.022790944484092
5.414207103551775,1.0168530668150326
5.427913956978489,1.010091063574906
5.441620810405202,1.000780832623083
5.455327663831915,0.9945244781100917
5.4690345172586285,0.9893336786601207
5.482741370685342,0.9820888270129091
5.496448224112055,0.9743775285797204
5.510155077538768,0.9677276511035845
5.523861930965483,0.9640573627111378
5.537568784392196,0.9591220137902977
5.551275637818909,0.9567300754581372
5.5649824912456225,0.9546938951717068
5.578689344672336,0.9545024447547886
5.592396198099049,0.9544417991787464
5.606103051525762,0.9514873210515692
5.619809904952476,0.9543015374483358
5.633516758379189,0.9555054384074665
5.647223611805902,0.9595232130062156
5.660930465232616,0.9645301929647195
5.674637318659329,0.9675088430588898
5.688344172086042,0.973861169544252
5.7020510255127554,0.9797847031023801
5.71575787893947,0.9834092820390965
5.729464732366183,0.9898804025247732
5.743171585792896,0.99569995743624
5.7568784392196095,1.0003578257665793
5.770585292646323,1.0050606385013667
5.784292146073036,1.0077447246421256
5.797998999499749,1.0119099193122154
5.811705852926463,1.0145293239784385
5.825412706353176,1.0166183520461574
5.839119559779889,1.0192332587298585
5.852826413206603,1.0188407963369095
5.866533266633316,1.0178550190290931
5.880240120060029,1.0182704364787967
5.8939469734867425,1.0180599916192095
5.907653826913456,1.01627708696257
5.92136068034017,1.0141288153719166
5.935067533766883,1.0098315236982371
5.9487743871935965,1.0075920880217075
5.96248124062031,1.005513313505504
5.976188094047023,1.0020377884610685
5.989894947473736,1.0022596582806975
6.00360180090045,0.999223798161769
6.017308654327163,0.998535252712371
6.031015507753876,0.9978648000851322
6.04472236118059,0.9983244083168579
6.058429214607303,0.9971348400991634
6.072136068034016,0.9998784297083064
6.0858429214607295,1.0008416871653611
6.099549774887443,1.0019715179264284
6.113256628314156,1.0056595576851344
6.12696348174087,1.009397872235765
6.1406703351675835,1.0112125138433228
6.154377188594297,1.0153196964494842
6.16808404202101,1.0173423864957905
6.181790895447723,1.020683684151213
6.195497748874437,1.023327755127858
6.20920460230115,1.0258203169897775
6.222911455727863,1.0277177563917255
6.236618309154577,1.0268761377882385
6.25032516258129,1.0287015503365222
6.264032016008003,1.0296047739258418
6.2777388694347165,1.0293297709148657
6.29144572286143,1.0263405639732548
6.305152576288143,1.0243843877058132
6.318859429714857,1.0210059179796966
6.3325662831415706,1.0173056534435834
6.346273136568284,1.011293311028252
6.359979989994997,1.0062236684461547
6.37368684342171,1.0007819941918352
6.387393696848424,0.9962259835499205
6.401100550275137,0.9899603495957922
6.41480740370185,0.9849808363395596
6.428514257128564,0.9779283665265366
6.442221110555277,0.9724293718596506
6.45592796398199,0.9654127426880362
6.4696348174087035,0.96239270061641
6.483341670835417,0.957195805130752
6.49704852426213,0.9529851280419733
6.510755377688843,0.9519656876546184
6.524462231115558,0.9493569829409
6.538169084542271,0.9496979808969829
6.551875937968984,0.9506211334597533
6.5655827913956974,0.9495215117135758
6.579289644822411,0.9522236676622615
6.592996498249124,0.9563663173895279
6.606703351675837,0.9589993416205921
6.620410205102551,0.965241361113737
6.634117058529264,0.970226696137858
6.647823911955977,0.97455136619788
6.6615307653826905,0.9816478000528179
6.675237618809404,0.9896182937995713
6.688944472236117,0.9975472782499553
6.70265132566283,1.005086941248055
6.716358179089544,1.0116020911655421
6.730065032516258,1.0155184020753572
6.743771885942971,1.0248923903099803
6.7574787393696845,1.0283634561513186
6.771185592796398,1.036919360289388
6.784892446223111,1.0411921512106435
6.798599299649824,1.0436080662551888
6.812306153076538,1.0472994806438376
6.826013006503251,1.0495380843081854
6.839719859929964,1.0493012650894322
6.8534267133566775,1.0495715576398628
6.867133566783391,1.047273443343835
6.880840420210104,1.0452669409235913
6.894547273636817,1.0439835002443822
6.908254127063531,1.0438689295603227
6.921960980490245,1.040206278904761
6.935667833916958,1.0321330695697593
6.9493746873436715,1.0310456794714373
6.963081540770385,1.0244763304260673
6.976788394197098,1.0186108140784544
6.990495247623811,1.013748531271792
7.004202101050525,1.0082556365164257
7.017908954477238,1.0015640399327133
7.031615807903951,0.9967528547457291
7.0453226613306645,0.9911578182271157
7.059029514757378,0.9869093645787781
7.072736368184091,0.981223674144201
7.086443221610804,0.9789730523443373
7.100150075037518,0.9745986262188716
7.113856928464231,0.9728808311953974
7.127563781890945,0.9700840942444863
7.1412706353176585,0.9734028202814451
7.154977488744372,0.9690573057422169
7.168684342171085,0.9714834831510428
7.182391195597798,0.9713745668597106
7.196098049024512,0.9725089111064217
7.209804902451225,0.9745769746939843
7.223511755877938,0.9776313356107882
7.2372186093046516,0.9808441404978049
7.250925462731365,0.9835560854023095
7.264632316158078,0.9860458690792983
7.278339169584791,0.987746639668455
7.292046023011505,0.9907986339805558
7.305752876438218,0.9944136316427201
7.319459729864932,0.9945497089514819
7.3331665832916455,0.9993829790196898
7.346873436718359,0.9995704598570937
