time,flux
0.0,0.991379432966467
0.013706853426713355,0.997524904448339
0.02741370685342671,1.00332934153031
0.041120560280140064,1.0104717759178414
0.05482741370685342,1.0168081972190255
0.06853426713356678,1.0209654698278747
0.08224112056028013,1.0273277689605538
0.09594797398699349,1.0320380767026986
0.10965482741370684,1.0345164661696244
0.1233616808404202,1.036916984317051
0.13706853426713356,1.038589373912466
0.1507753876938469,1.0371964253343298
0.16448224112056026,1.0348732450245304
0.1781890945472736,1.0340176608621274
0.19189594797398699,1.0286206904851545
0.20560280140070034,1.023738039472496
0.21930965482741369,1.0167229777427516
0.23301650825412704,1.0105472403078042
0.2467233616808404,1.0038834373731451
0.26043021510755376,0.9981611222101389
0.2741370685342671,0.9905041141501435
0.28784392196098046,0.9862528388098578
0.3015507753876938,0.9808187774795294
0.31525762881440716,0.9768526680374616
0.3289644822411205,0.9749328748853203
0.34267133566783387,0.9742247934493055
0.3563781890945472,0.9718575515577287
0.3700850425212606,0.9741710589848681
0.38379189594797397,0.9757110855239722
0.3974987493746873,0.9785451846674361
0.41120560280140067,0.9822669492846543
0.424912456228114,0.9859214122659167
0.43861930965482737,0.9911262498894337
0.4523261630815407,0.9942643433577427
0.46603301650825407,0.9976301080238665
0.4797398699349674,1.0024954004024025
0.4934467233616808,1.004896516251676
0.5071535767883941,1.0069118463839886
0.5208604302151075,1.0084666926736563
0.5345672836418208,1.0097603041550112
0.5482741370685342,1.007007324943322
0.5619809904952475,1.0075235536910936
0.5756878439219609,1.006302260055238
0.5893946973486743,1.0035322356115983
0.6031015507753876,1.0022635187781952
0.616808404202101,0.9985830415285214
0.6305152576288143,0.9965220210336501
0.6442221110555277,0.9942290199741142
0.657928964482241,0.9922598823755777
0.6716358179089544,0.9912813232299728
0.6853426713356677,0.9927496121469811
0.6990495247623811,0.9934093024869934
0.7127563781890944,0.9943030563347823
0.7264632316158078,0.9970560989314076
0.7401700850425212,0.9998183789490146
0.7538769384692345,1.0042132087340954
0.7675837918959479,1.0091752713567197
0.7812906453226612,1.0151353239923853
0.7949974987493746,1.019087072833189
0.8087043521760879,1.0246687984906415
0.8224112056028013,1.0282654082186542
0.8361180590295146,1.0300616222637677
0.849824912456228,1.033335280206957
0.8635317658829413,1.0336358482680346
0.8772386193096547,1.034842463979734
0.8909454727363681,1.032668610632072
0.9046523261630814,1.0304960026783974
0.9183591795897948,1.0261861724684274
0.9320660330165081,1.021438213117462
0.9457728864432215,1.0156261692195936
0.9594797398699348,1.0095509403058367
0.9731865932966483,1.0025271685494448
0.9868934467233615,0.9951919868677985
1.000600300150075,0.9886625368299314
1.0143071535767882,0.9819558593562717
1.0280140070035018,0.9749265328953397
1.041720860430215,0.9716971858986376
1.0554277138569284,0.9672164387188968
1.0691345672836416,0.9647767703516553
1.0828414207103552,0.9635471054320365
1.0965482741370685,0.9639062613829457
1.1102551275637818,0.9646652008536976
1.123961980990495,0.9674830453508533
1.1376688344172086,0.9706708335845983
1.1513756878439219,0.9758316515709312
1.1650825412706352,0.9799747177430138
1.1787893946973487,0.9853383208129365
1.192496248124062,0.991105112406554
1.2062031015507753,0.9972396448520797
1.2199099549774886,1.002854779217637
1.233616808404202,1.007446322309311
1.2473236618309154,1.0113647527938072
1.2610305152576287,1.0131441057793993
1.274737368684342,1.0151722075058793
1.2884442221110555,1.0156545218996964
1.3021510755377688,1.0159453189564671
1.315857928964482,1.0146884442464306
1.3295647823911956,1.013150308982531
1.3432716358179089,1.0104537292529667
1.3569784892446222,1.0088972132576852
1.3706853426713355,1.004579105532242
1.384392196098049,1.0020982894124213
1.3980990495247623,1.000460394829482
1.4118059029514756,0.9978021262004978
1.4255127563781889,0.9953641343050246
1.4392196098049024,0.9959887189772192
1.4529264632316157,0.9945859918727826
1.466633316658329,0.995241484481836
1.4803401700850425,0.9976855446493555
1.4940470235117558,0.9991383830089942
1.507753876938469,1.0020331815046286
1.5214607303651824,1.0051996900464506
1.5351675837918959,1.0082752487241045
1.5488744372186092,1.011253193167428
1.5625812906453225,1.0152743758872949
1.5762881440720358,1.017102035550062
1.5899949974987493,1.0193832970055414
1.6037018509254626,1.0202812226222255
1.6174087043521759,1.0197866745242903
1.6311155577788894,1.0193681391425404
1.6448224112056027,1.016344974013938
1.658529264632316,1.01430779913191
1.6722361180590293,1.0085035318316193
1.6859429714857428,1.0041772022183677
1.699649824912456,0.9990432564846772
1.7133566783391694,0.9918610931428481
1.7270635317658827,0.9857164841871668
1.7407703851925962,0.9806984303333245
1.7544772386193095,0.9745645934833302
1.7681840920460228,0.9696594915984542
1.7818909454727363,0.9653893119285676
1.7955977988994496,0.9633023118656544
1.8093046523261629,0.9608520174653391
1.8230115057528762,0.9615711509194587
1.8367183591795897,0.9622223390356336
1.850425212606303,0.9646137567493369
1.8641320660330163,0.9693818844627555
1.8778389194597296,0.9739387248765946
1.891545772886443,0.9798466703773256
1.9052526263131564,0.9850228195905403
1.9189594797398697,0.9926235694384953
1.9326663331665832,0.9994382480492799
1.9463731865932965,1.005405237773338
1.9600800400200098,1.0127608357065607
1.973786893446723,1.0172781703485585
1.9874937468734366,1.0229832301567987
2.00120060030015,1.0265110513773257
2.014907453726863,1.0298000324475582
2.0286143071535765,1.0310563105090977
2.04232116058029,1.0305031491234788
2.0560280140070035,1.0304701194855528
2.069734867433717,1.0275368171410484
2.08344172086043,1.0238376694805909
2.0971485742871434,1.021262318369757
2.1108554277138567,1.0179068874907387
2.12456228114057,1.0138849703964463
2.1382691345672833,1.0084983842503112
2.1519759879939966,1.0046334930702587
2.1656828414207103,1.000484663004387
2.1793896948474236,0.9982228411324489
2.193096548274137,0.997222620790606
2.20680340170085,0.9955483132557204
2.2205102551275635,0.9953276606966039
2.234217108554277,0.9950884397818379
2.24792396198099,0.9961176055711676
2.261630815407704,0.9980788680512502
2.275337668834417,0.9994649230838575
2.2890445222611304,1.0027129527229068
2.3027513756878437,1.0047926045738031
2.316458229114557,1.0067021654593349
2.3301650825412703,1.0089096156500224
2.3438719359679836,1.0099561453824135
2.3575787893946973,1.0121852277055492
2.3712856428214106,1.0112346880442487
2.384992496248124,1.01035199118557
2.3986993496748372,1.0092577864652663
2.4124062031015505,1.006170867578637
2.426113056528264,1.0023492989057645
2.439819909954977,0.9979622411548238
2.4535267633816904,0.9933587152321696
2.467233616808404,0.9887603575100963
2.4809404702351174,0.9849670483683111
2.4946473236618307,0.9808468339419708
2.508354177088544,0.9759025694907136
2.5220610305152573,0.9728930876082051
2.5357678839419706,0.971078943274755
2.549474737368684,0.9704817878600762
2.5631815907953976,0.9705555212099167
2.576888444222111,0.9717282057639954
2.5905952976488242,0.9742285101010871
2.6043021510755375,0.9777698824248263
2.618009004502251,0.9835793685822023
2.631715857928964,0.989544802815044
2.6454227113556774,0.9955998851733044
2.659129564782391,1.002695971166039
2.6728364182091044,1.0086062691214914
2.6865432716358177,1.0155755412454472
2.700250125062531,1.0223644877400548
2.7139569784892443,1.026863679647909
2.7276638319159576,1.0311101641324587
2.741370685342671,1.035296716949546
2.755077538769384,1.0374680751346514
2.768784392196098,1.037687767278843
2.7824912456228112,1.036219205803135
2.7961980990495245,1.0361777704774575
2.809904952476238,1.0321308405852052
2.823611805902951,1.0282925585504208
2.8373186593296644,1.0227663483596783
2.8510255127563777,1.0163926189127421
2.8647323661830915,1.010231713178455
2.8784392196098048,1.0036116693898585
2.892146073036518,0.9987166042659945
2.9058529264632313,0.9940451705617129
2.9195597798899446,0.9901940617408244
2.933266633316658,0.9857850042597952
2.9469734867433712,0.982665755742403
2.960680340170085,0.9796837088565433
2.9743871935967983,0.9786385995953522
2.9880940470235116,0.9809769200478421
3.001800900450225,0.9814741943700471
3.015507753876938,0.9835233828057839
3.0292146073036514,0.9856963358354255
3.0429214607303647,0.9880861586328155
3.056628314157078,0.9896601074950877
3.0703351675837918,0.9935860114979211
3.084042021010505,0.9971597422520639
3.0977488744372184,0.9986873111453931
3.1114557278639317,1.0002429279746987
3.125162581290645,1.000904698229079
3.1388694347173582,1.0011370919716944
3.1525762881440715,1.0000314907379648
3.1662831415707853,0.9981695308631711
3.1799899949974986,0.9965533145854221
3.193696848424212,0.9927280847107841
3.207403701850925,0.9908604867067272
3.2211105552776385,0.9873320757550055
3.2348174087043517,0.9834291337354732
3.248524262131065,0.9807665163359497
3.262231115557779,0.978204198905612
3.275937968984492,0.9772211806795589
3.2896448224112054,0.9780472885800527
3.3033516758379187,0.9769423789638921
3.317058529264632,0.978654627773114
3.3307653826913453,0.9821868988461516
3.3444722361180586,0.9846630744221458
3.358179089544772,0.9889210473258978
3.3718859429714856,0.9938286055742974
3.385592796398199,0.9989073670273128
3.399299649824912,1.0056509174211634
3.4130065032516255,1.0121243403292983
3.4267133566783388,1.0196013275543396
3.440420210105052,1.0234621013026208
3.4541270635317654,1.0287797064895148
3.467833916958479,1.032145689685859
3.4815407703851924,1.034866882046405
3.4952476238119057,1.0362135730822986
3.508954477238619,1.036358878147519
3.5226613306653323,1.0342739125769005
3.5363681840920456,1.0317822142195263
3.550075037518759,1.0286336663238254
3.5637818909454726,1.023249520127476
3.577488744372186,1.0167366644058287
3.591195597798899,1.0110878587238183
3.6049024512256125,1.003674117761899
3.6186093046523258,0.9979509315217442
3.632316158079039,0.9913348308047716
3.6460230115057524,0.9843886630897524
3.659729864932466,0.9793694293295601
3.6734367183591794,0.9749607447028628
3.6871435717858927,0.9721838242950888
3.700850425212606,0.9694370089060454
3.7145572786393193,0.9685555846385234
3.7282641320660326,0.9695320419822622
3.741970985492746,0.970372058759144
3.755677838919459,0.9744211739298843
3.769384692346173,0.9767879018708957
3.783091545772886,0.9816421216953684
3.7967983991995995,0.9856856619586885
3.810505252626313,0.9901714565271592
3.824212106053026,0.9950729144804352
3.8379189594797394,0.9990316151522768
3.8516258129064527,1.0014556454958867
3.8653326663331664,1.0054853262743924
3.8790395197598797,1.008527416067422
3.892746373186593,1.0092444437276251
3.9064532266133063,1.0098104626205735
3.9201600800400196,1.0086195157868645
3.933866933466733,1.008477807470846
3.947573786893446,1.006653941786596
3.96128064032016,1.0044008023448638
3.974987493746873,1.002843523151436
3.9886943471735865,0.9994600715424371
4.0024012006003,0.9972908217886113
4.016108054027013,0.995648551680802
4.029814907453726,0.9935411560302162
4.04352176088044,0.9932107680383637
4.057228614307153,0.9944150113315654
4.070935467733866,0.9950477111983033
4.08464232116058,0.9979807537329288
4.098349174587293,1.0003777879229947
4.112056028014007,1.0026892232543907
4.12576288144072,1.0072811464866218
4.139469734867434,1.0116559511786725
4.153176588294147,1.016670064827935
4.16688344172086,1.0209072908102086
4.1805902951475735,1.0253667255250853
4.194297148574287,1.0284139589981411
4.208004002001,1.0308925174781625
4.221710855427713,1.0331792903839354
4.235417708854427,1.0331260813259258
4.24912456228114,1.0323479256730508
4.262831415707853,1.030980777102237
4.276538269134567,1.0278897273459875
4.29024512256128,1.0233627990896255
4.303951975987993,1.0173979576512535
4.317658829414707,1.0124656027951735
4.331365682841421,1.0046064096382203
4.345072536268134,0.9978405241881475
4.358779389694847,0.9912479077577454
4.3724862431215605,0.9851075159110129
4.386193096548274,0.978181240784048
4.399899949974987,0.9725780231360355
4.4136068034017,0.9698010242775839
4.427313656828414,0.966623776252221
4.441020510255127,0.962446854953546
4.45472736368184,0.963445570792507
4.468434217108554,0.9628730198461504
4.482141070535267,0.9669806276028615
4.49584792396198,0.9702362301444449
4.5095547773886935,0.97380433900907
4.523261630815408,0.9782631990831747
4.536968484242121,0.9849912678503352
4.550675337668834,0.9917554233197422
4.5643821910955475,0.9971661552700857
4.578089044522261,1.0023571747571847
4.591795897948974,1.0080160872558817
4.605502751375687,1.0123433305479623
4.619209604802401,1.0157350337663955
4.632916458229114,1.0175010385042678
4.646623311655827,1.0184686396752487
4.660330165082541,1.0198124008656384
4.674037018509254,1.0195369678952253
4.687743871935967,1.0180430279166601
4.7014507253626805,1.0157579306605449
4.715157578789395,1.0127550806915164
4.728864432216108,1.0107861274669243
4.742571285642821,1.0070435819729462
4.756278139069535,1.004037330126468
4.769984992496248,1.0011773499313146
4.783691845922961,0.9976565903949456
4.7973986993496744,0.997772840328569
4.811105552776388,0.9950472090224459
4.824812406203101,0.9956800280823028
4.838519259629814,0.9965676516722305
4.852226113056528,0.9979413625854272
4.865932966483241,0.9996906538701729
4.879639819909954,1.001987916699122
4.8933466733366675,1.0030478099177127
4.907053526763381,1.0083225708762218
4.920760380190095,1.0106385622642078
4.934467233616808,1.0125543089530264
4.948174087043522,1.0152138190635898
4.961880940470235,1.0156663381077407
4.975587793896948,1.0160936963457374
4.9892946473236615,1.0171097987298794
5.003001500750375,1.0156834533750556
5.016708354177088,1.0123163452164026
5.030415207603801,1.0095516885054907
5.044122061030515,1.0051937424562767
5.057828914457228,0.9992922968779869
5.071535767883941,0.9940874035199689
5.0852426213106545,0.9879285620807897
5.098949474737368,0.9829824374918712
5.112656328164081,0.9768520664444539
5.126363181590795,0.9714643198666139
5.140070035017509,0.9662728018042068
5.153776888444222,0.9626607925973569
5.167483741870935,0.9621587255400408
5.1811905952976485,0.9617039979703064
5.194897448724362,0.9599548136492766
5.208604302151075,0.9650206745637361
5.222311155577788,0.9663293831045742
5.236018009004502,0.9699419716737484
5.249724862431215,0.9769984612447165
5.263431715857928,0.9822066388023386
5.2771385692846415,0.9885088316518866
5.290845422711355,0.996293813008039
5.304552276138068,1.0038002431933934
5.318259129564782,1.0094897510821317
5.331965982991496,1.0166567250765424
5.345672836418209,1.0208036355203207
5.359379689844922,1.0259594427902368
5.3730865432716355,1.028544459693513
5.386793396698349,1.029596208710371
5.400500250125062,1.031618997657179
5.414207103551775,1.0299127550060891
5.427913956978489,1.0297276559961857
5.441620810405202,1.026060508188117
5.455327663831915,1.0229023514417377
5.4690345172586285,1.0176493579017338
5.482741370685342,1.0131051863391964
5.496448224112055,1.0088234943004264
5.510155077538768,1.005201140015873
5.523861930965483,1.0023331256853616
5.537568784392196,0.9976933500263031
5.551275637818909,0.9948407444826096
5.5649824912456225,0.9926935178833571
5.578689344672336,0.9910655405367705
5.592396198099049,0.9911617940372023
5.606103051525762,0.9919192630877613
5.619809904952476,0.9929702930648883
5.633516758379189,0.9954796470442984
5.647223611805902,0.9972372869019376
5.660930465232616,0.999877537338273
5.674637318659329,1.0027808196445336
5.688344172086042,1.0038619538430464
5.7020510255127554,1.006759316990534
5.71575787893947,1.0084177491496054
5.729464732366183,1.0087649775186767
5.743171585792896,1.008283324589846
5.7568784392196095,1.0075906440181845
5.770585292646323,1.005017099369463
5.784292146073036,1.0024160018496815
5.797998999499749,0.9990902704829693
5.811705852926463,0.9958439311378005
5.825412706353176,0.9905076896880431
5.839119559779889,0.9871675228971698
5.852826413206603,0.9833886054666756
5.866533266633316,0.9792737603544538
5.880240120060029,0.9765676761145087
5.8939469734867425,0.9734477522511878
5.907653826913456,0.9722482852824429
5.92136068034017,0.9719091246681324
5.935067533766883,0.9722181306360952
5.9487743871935965,0.9755128085659982
5.96248124062031,0.9779774864524344
5.976188094047023,0.982980887311856
5.989894947473736,0.9884754676978508
6.00360180090045,0.9950324001027869
6.017308654327163,1.00205239486289
6.031015507753876,1.0078604319257527
6.04472236118059,1.0156337877475135
6.058429214607303,1.021933476668569
6.072136068034016,1.0270863796724898
6.0858429214607295,1.0317488184840224
6.099549774887443,1.0354370649429445
6.113256628314156,1.0384056918660343
6.12696348174087,1.0403306821466676
6.1406703351675835,1.0397386024184267
6.154377188594297,1.0376632396229122
6.16808404202101,1.0356004315533185
6.181790895447723,1.0309487029693427
6.195497748874437,1.0264845371311195
6.20920460230115,1.019930273400744
6.222911455727863,1.0145145007454288
6.236618309154577,1.008109942912529
6.25032516258129,1.0022730552774322
6.264032016008003,0.9964960375260943
6.2777388694347165,0.9911840342557963
6.29144572286143,0.9871886042937971
6.305152576288143,0.9827293598768905
6.318859429714857,0.9805415262973417
6.3325662831415706,0.9785228562941383
6.346273136568284,0.9780175646188723
6.359979989994997,0.9782906431244721
6.37368684342171,0.9808149274476929
6.387393696848424,0.9824651349047485
6.401100550275137,0.9848905534027483
6.41480740370185,0.9884330385750374
6.428514257128564,0.9917858512291359
6.442221110555277,0.994355847257108
6.45592796398199,0.9980856828463835
6.4696348174087035,0.9994353056907482
6.483341670835417,1.0018432302912332
6.49704852426213,1.002223232198726
6.510755377688843,1.002762196309236
6.524462231115558,1.002207909485444
6.538169084542271,0.999608893097988
6.551875937968984,0.9969709931113679
6.5655827913956974,0.9956055651283441
6.579289644822411,0.9929716483042957
6.592996498249124,0.9896457909835216
6.606703351675837,0.9864781127914647
6.620410205102551,0.9834686351274118
6.634117058529264,0.9836602944597734
6.647823911955977,0.9806772296727572
6.6615307653826905,0.9809155234703273
6.675237618809404,0.980403017741107
6.688944472236117,0.9832581075604002
6.70265132566283,0.9843683122458344
6.716358179089544,0.9887773604390423
6.730065032516258,0.9938052318623722
6.743771885942971,0.9981676102631076
6.7574787393696845,1.0033655236972128
6.771185592796398,1.0090109567580672
6.784892446223111,1.0145292726920792
6.798599299649824,1.0205870787803342
6.812306153076538,1.0248547995127386
6.826013006503251,1.0305732254539692
6.839719859929964,1.0322122928611501
6.8534267133566775,1.0340205782194474
6.867133566783391,1.034604589377726
6.880840420210104,1.033567493428005
6.894547273636817,1.0308213359275984
6.908254127063531,1.028208372527317
6.921960980490245,1.0228588767364628
6.935667833916958,1.0186151341922123
6.9493746873436715,1.011452644341348
6.963081540770385,1.004927653489801
6.976788394197098,0.9975230792717308
6.990495247623811,0.9906341738194333
7.004202101050525,0.9840447621333502
7.017908954477238,0.9785414839439427
7.031615807903951,0.9743851521654
7.0453226613306645,0.9690887585833183
7.059029514757378,0.9656324121184385
7.072736368184091,0.9656715269810545
7.086443221610804,0.9659896572927286
7.100150075037518,0.9665072526707068
7.113856928464231,0.9696021107727176
7.127563781890945,0.9721888366956245
7.1412706353176585,0.9758952653154394
7.154977488744372,0.980490497022937
7.168684342171085,0.9860030742267596
7.182391195597798,0.9906037224572366
7.196098049024512,0.9953156547416743
7.209804902451225,1.0002651182102866
7.223511755877938,1.0030493289099445
7.2372186093046516,1.0064793647742596
7.250925462731365,1.0084447713512952
7.264632316158078,1.009806134384065
7.278339169584791,1.0101619498103085
7.292046023011505,1.0097222720419239
7.305752876438218,1.0094501052070757
7.319459729864932,1.0070361441903044
7.3331665832916455,1.0046415087559442
7.346873436718359,1.0025351837182697
