time,flux
0.0,1.0123994864905792
0.013706853426713355,1.0184377058313914
0.02741370685342671,1.0225790544957236
0.041120560280140064,1.0299986780452268
0.05482741370685342,1.0338095645800085
0.06853426713356678,1.0396079883108291
0.08224112056028013,1.0475730590854626
0.09594797398699349,1.0494232277332955
0.10965482741370684,1.0526460188133375
0.1233616808404202,1.0533197050351348
0.13706853426713356,1.055925254605529
0.1507753876938469,1.0547307822621887
0.16448224112056026,1.0526099338705908
0.1781890945472736,1.0496170806060727
0.19189594797398699,1.0432437347551378
0.20560280140070034,1.0380606234522205
0.21930965482741369,1.032823721470869
0.23301650825412704,1.0246949126157252
0.2467233616808404,1.018747491015035
0.26043021510755376,1.0120510082814986
0.2741370685342671,1.0059845092109827
0.28784392196098046,1.0002097541710928
0.3015507753876938,0.995760608356006
0.31525762881440716,0.990720833870685
0.3289644822411205,0.9883268176798101
0.34267133566783387,0.9860965814751371
0.3563781890945472,0.9860245014003088
0.3700850425212606,0.9880868060913756
0.38379189594797397,0.9878555374298085
0.3974987493746873,0.9934260202726571
0.41120560280140067,0.995608178625794
0.424912456228114,0.9993076205533724
0.43861930965482737,1.0053095237049186
0.4523261630815407,1.0099591734910083
0.46603301650825407,1.0164881590117905
0.4797398699349674,1.020354310859417
0.4934467233616808,1.0260990728746677
0.5071535767883941,1.0289365512639885
0.5208604302151075,1.0334453444691674
0.5345672836418208,1.0343843067244076
0.5482741370685342,1.035663900331999
0.5619809904952475,1.035655681261157
0.5756878439219609,1.0355773927118217
0.5893946973486743,1.0359899548390525
0.6031015507753876,1.0352253467678034
0.616808404202101,1.0321495382612174
0.6305152576288143,1.0323528615814075
0.6442221110555277,1.0293750930975485
0.657928964482241,1.0290080602942124
0.6716358179089544,1.0272633834088118
0.6853426713356677,1.0275820351326894
0.6990495247623811,1.02874645039269
0.7127563781890944,1.0294984822956543
0.7264632316158078,1.0296650635273297
0.7401700850425212,1.03144110125038
0.7538769384692345,1.0329016938051343
0.7675837918959479,1.0321040509529202
0.7812906453226612,1.032395112524817
0.7949974987493746,1.0331049013736209
0.8087043521760879,1.0326641698895012
0.8224112056028013,1.0329029162620573
0.8361180590295146,1.0301979255468658
0.849824912456228,1.02901718917945
0.8635317658829413,1.0239840806911726
0.8772386193096547,1.0222119035700241
0.8909454727363681,1.0156461369097072
0.9046523261630814,1.0114766988462618
0.9183591795897948,1.00455784694642
0.9320660330165081,0.9989800308756922
0.9457728864432215,0.9924810847816055
0.9594797398699348,0.9858558617652584
0.9731865932966483,0.9818342607934932
0.9868934467233615,0.9756633206486882
1.000600300150075,0.973487838073093
1.0143071535767882,0.9698241498114731
1.0280140070035018,0.9704063342950331
1.041720860430215,0.9679885514697141
1.0554277138569284,0.971860027342363
1.0691345672836416,0.9717043029977088
1.0828414207103552,0.9788313372257887
1.0965482741370685,0.9818155695419719
1.1102551275637818,0.9885215092045755
1.123961980990495,0.9935115671043436
1.1376688344172086,1.0003459339568574
1.1513756878439219,1.0063532516509157
1.1650825412706352,1.0137501519466527
1.1787893946973487,1.0171459589342176
1.192496248124062,1.023139138360005
1.2062031015507753,1.0274230211150688
1.2199099549774886,1.030331273743606
1.233616808404202,1.0309155575699247
1.2473236618309154,1.0304917046771729
1.2610305152576287,1.0315927546046368
1.274737368684342,1.0270573194748025
1.2884442221110555,1.0239398750533582
1.3021510755377688,1.019286765417042
1.315857928964482,1.0161281741644426
1.3295647823911956,1.0098904702516056
1.3432716358179089,1.0052786707981824
1.3569784892446222,0.9997384867957929
1.3706853426713355,0.9933491472889721
1.384392196098049,0.989490899498983
1.3980990495247623,0.9847507836359366
1.4118059029514756,0.983077874113813
1.4255127563781889,0.9792457157517339
1.4392196098049024,0.9765680419682613
1.4529264632316157,0.9745897536252052
1.466633316658329,0.9721868226333479
1.4803401700850425,0.9750022527010137
1.4940470235117558,0.9725630918857747
1.507753876938469,0.9744573249116416
1.5214607303651824,0.9734581413119552
1.5351675837918959,0.973601243073417
1.5488744372186092,0.9758188567222558
1.5625812906453225,0.9739270766554642
1.5762881440720358,0.9725854845522571
1.5899949974987493,0.9731881856016773
1.6037018509254626,0.9697057556879163
1.6174087043521759,0.9684721295623298
1.6311155577788894,0.9666895388158879
1.6448224112056027,0.9638659971128128
1.658529264632316,0.9621395252576497
1.6722361180590293,0.9601147797778674
1.6859429714857428,0.9609308469556223
1.699649824912456,0.9599184812718127
1.7133566783391694,0.9596425998284117
1.7270635317658827,0.9608125594755311
1.7407703851925962,0.9623048232043786
1.7544772386193095,0.9637889410660725
1.7681840920460228,0.9694834645406757
1.7818909454727363,0.9725519559260182
1.7955977988994496,0.9778473112832184
1.8093046523261629,0.983766028544803
1.8230115057528762,0.9885635198850019
1.8367183591795897,0.9937876507258199
1.850425212606303,1.0017342732708288
1.8641320660330163,1.0045624268866502
1.8778389194597296,1.0101200326495352
1.891545772886443,1.012336857301473
1.9052526263131564,1.0145184668769636
1.9189594797398697,1.0160196853950483
1.9326663331665832,1.0149764972062063
1.9463731865932965,1.0133472407873212
1.9600800400200098,1.0101113242550368
1.973786893446723,1.0071133615235226
1.9874937468734366,1.002002321224343
2.00120060030015,0.996225612555998
2.014907453726863,0.9870898425955399
2.0286143071535765,0.981696436210776
2.04232116058029,0.9760633753051313
2.0560280140070035,0.9684725066921654
2.069734867433717,0.9629396236379051
2.08344172086043,0.9580782413591492
2.0971485742871434,0.953182157445869
2.1108554277138567,0.9493353333265683
2.12456228114057,0.9488567477845675
2.1382691345672833,0.9482919638613229
2.1519759879939966,0.946547299433725
2.1656828414207103,0.9481656892339296
2.1793896948474236,0.9512739126826666
2.193096548274137,0.9550259199702674
2.20680340170085,0.960411360805482
2.2205102551275635,0.9634985533014557
2.234217108554277,0.9694187269541107
2.24792396198099,0.9753390518461692
2.261630815407704,0.9796982277405332
2.275337668834417,0.983246785022236
2.2890445222611304,0.9857122877184069
2.3027513756878437,0.9918821589985528
2.316458229114557,0.9945637653298621
2.3301650825412703,0.9958972736203727
2.3438719359679836,0.999032353796804
2.3575787893946973,0.9983670131124915
2.3712856428214106,0.9985919552954837
2.384992496248124,1.0002615214200765
2.3986993496748372,0.9984594960293058
2.4124062031015505,0.9984191208810045
2.426113056528264,0.9995054372468455
2.439819909954977,1.0000651302765968
2.4535267633816904,1.0019878085977045
2.467233616808404,1.0007294242669027
2.4809404702351174,1.0048272600875543
2.4946473236618307,1.0065723231718842
2.508354177088544,1.007674548759252
2.5220610305152573,1.0092477114588332
2.5357678839419706,1.013535488949353
2.549474737368684,1.0167019314273764
2.5631815907953976,1.0191622885129434
2.576888444222111,1.0197318625860348
2.5905952976488242,1.0215981592677865
2.6043021510755375,1.0218543880767135
2.618009004502251,1.0216868817447635
2.631715857928964,1.0206620628643626
2.6454227113556774,1.0174125122537352
2.659129564782391,1.0160703530104738
2.6728364182091044,1.0133844367431113
2.6865432716358177,1.0069770023808329
2.700250125062531,1.0014696744932663
2.7139569784892443,0.9956437969919636
2.7276638319159576,0.9917445298062636
2.741370685342671,0.987561791342939
2.755077538769384,0.9820553753582819
2.768784392196098,0.9785150476707928
2.7824912456228112,0.9735653718285204
2.7961980990495245,0.9742044114308719
2.809904952476238,0.9715934554595544
2.823611805902951,0.9733960471290451
2.8373186593296644,0.9738003864950273
2.8510255127563777,0.9772236499914148
2.8647323661830915,0.9815860293942466
2.8784392196098048,0.9887069966730264
2.892146073036518,0.994885475854619
2.9058529264632313,1.0008857863774618
2.9195597798899446,1.0089218792725074
2.933266633316658,1.016619960595633
2.9469734867433712,1.0239681776666412
2.960680340170085,1.0308565660886864
2.9743871935967983,1.0379967986692862
2.9880940470235116,1.040635198572867
3.001800900450225,1.0445803283747306
3.015507753876938,1.0501994703389075
3.0292146073036514,1.0513979235318922
3.0429214607303647,1.051871453361074
3.056628314157078,1.0508712627087695
3.0703351675837918,1.051837472557767
3.084042021010505,1.0489771608968228
3.0977488744372184,1.0446430251433851
3.1114557278639317,1.0408868445307429
3.125162581290645,1.0368261874093887
3.1388694347173582,1.0325193052033261
3.1525762881440715,1.0293000562322452
3.1662831415707853,1.026667191756131
3.1799899949974986,1.0237374535536337
3.193696848424212,1.0209984787961859
3.207403701850925,1.0186681567654343
3.2211105552776385,1.0167650930672816
3.2348174087043517,1.0163339503688187
3.248524262131065,1.0141197882049198
3.262231115557779,1.0159857816230127
3.275937968984492,1.014761074221775
3.2896448224112054,1.0177900586924638
3.3033516758379187,1.0163071486046416
3.317058529264632,1.0168675662721915
3.3307653826913453,1.019273079034992
3.3444722361180586,1.0186989226035974
3.358179089544772,1.016012616474167
3.3718859429714856,1.0146782317978067
3.385592796398199,1.0118240818133524
3.399299649824912,1.011027727446282
3.4130065032516255,1.0079457180522575
3.4267133566783388,1.0043367161349555
3.440420210105052,1.0034633161107176
3.4541270635317654,1.001789804649168
3.467833916958479,0.9989571617797651
3.4815407703851924,0.9973688964651056
3.4952476238119057,0.9978659542274805
3.508954477238619,0.9970934236529065
3.5226613306653323,0.9980281184595285
3.5363681840920456,1.0021942002124107
3.550075037518759,1.0042563342235802
3.5637818909454726,1.0076744519216303
3.577488744372186,1.012821557450324
3.591195597798899,1.0196657040177415
3.6049024512256125,1.0250652341352327
3.6186093046523258,1.0322515834371198
3.632316158079039,1.0355669904474312
3.6460230115057524,1.0427515909359795
3.659729864932466,1.0470094164067454
3.6734367183591794,1.0485121807447526
3.6871435717858927,1.0524794174976961
3.700850425212606,1.0522332773834866
3.7145572786393193,1.0545331450226385
3.7282641320660326,1.0527091560593242
3.741970985492746,1.0487349576520586
3.755677838919459,1.0446618684677262
3.769384692346173,1.040693189706057
3.783091545772886,1.0326635666125217
3.7967983991995995,1.0252755179555835
3.810505252626313,1.0202289713214767
3.824212106053026,1.0108588557344143
3.8379189594797394,1.0045239572528593
3.8516258129064527,0.9956143653212932
3.8653326663331664,0.9898167221530383
3.8790395197598797,0.9842590362978542
3.892746373186593,0.9799741237440109
3.9064532266133063,0.9755035793780082
3.9201600800400196,0.9731330666722072
3.933866933466733,0.9716955156897845
3.947573786893446,0.9711725832867386
3.96128064032016,0.974106561079853
3.974987493746873,0.9756413897024881
3.9886943471735865,0.9758142939659668
4.0024012006003,0.9810695095976024
4.016108054027013,0.9831055245635769
4.029814907453726,0.985409654015325
4.04352176088044,0.9893362173720215
4.057228614307153,0.9931959610061534
4.070935467733866,0.9945958635663604
4.08464232116058,0.9956578519396262
4.098349174587293,0.9958211074036956
4.112056028014007,0.9970448647934002
4.12576288144072,0.9986220780467667
4.139469734867434,0.9961747382159446
4.153176588294147,0.9968696791248303
4.16688344172086,0.9965158685148519
4.1805902951475735,0.9956515344430309
4.194297148574287,0.9947567174782563
4.208004002001,0.9945430018590725
4.221710855427713,0.994927722823975
4.235417708854427,0.99410848803173
4.24912456228114,0.9929669081817526
4.262831415707853,0.9961729409908903
4.276538269134567,0.9966829520992472
4.29024512256128,1.0006268904431923
4.303951975987993,0.9996758419616052
4.317658829414707,1.0024394814176671
4.331365682841421,1.0036669180816395
4.345072536268134,1.0068265255219893
4.358779389694847,1.007961876143254
4.3724862431215605,1.0086826550511767
4.386193096548274,1.0082583852816032
4.399899949974987,1.0079632086067467
4.4136068034017,1.007142470896208
4.427313656828414,1.0042380764496148
4.441020510255127,0.9984737260345574
4.45472736368184,0.9942987356451394
4.468434217108554,0.9880603476647664
4.482141070535267,0.9817141111316062
4.49584792396198,0.9747944382312446
4.5095547773886935,0.9711104493803498
4.523261630815408,0.9639253036603576
4.536968484242121,0.9572272153197001
4.550675337668834,0.9504348342675226
4.5643821910955475,0.9438525575324139
4.578089044522261,0.9425341915292704
4.591795897948974,0.9384466862867136
4.605502751375687,0.9383782876474187
4.619209604802401,0.9395736119549352
4.632916458229114,0.940400324960932
4.646623311655827,0.9443326316755613
4.660330165082541,0.9467194560278315
4.674037018509254,0.9519438396975202
4.687743871935967,0.9600900268127014
4.7014507253626805,0.9655075067120309
4.715157578789395,0.9727633995844148
4.728864432216108,0.9786523647335761
4.742571285642821,0.9852480566504745
4.756278139069535,0.9910534230307779
4.769984992496248,0.997251489443887
4.783691845922961,1.001272361085034
4.7973986993496744,1.0036203269829544
4.811105552776388,1.006349530829617
4.824812406203101,1.005983887994513
4.838519259629814,1.0082484118271215
4.852226113056528,1.006269512925451
4.865932966483241,1.0054009769208136
4.879639819909954,0.9997930771248354
4.8933466733366675,0.9979559839792795
4.907053526763381,0.995737368955166
4.920760380190095,0.9948504615441457
4.934467233616808,0.9897725277885057
4.948174087043522,0.9860052564531961
4.961880940470235,0.9856981554333358
4.975587793896948,0.9827602721654385
4.9892946473236615,0.9826636076586629
5.003001500750375,0.9789181566626313
5.016708354177088,0.9803603712876615
5.030415207603801,0.9812494172817714
5.044122061030515,0.9790261091846257
5.057828914457228,0.9802756391533745
5.071535767883941,0.9818089224674582
5.0852426213106545,0.983105035513027
5.098949474737368,0.9830841804916982
5.112656328164081,0.9837221684146675
5.126363181590795,0.9817625008810834
5.140070035017509,0.9822050420568714
5.153776888444222,0.9796011260275587
5.167483741870935,0.9788795868939659
5.1811905952976485,0.9780435143505046
5.194897448724362,0.974209122774308
5.208604302151075,0.9733996010717042
5.222311155577788,0.9703320205622397
5.236018009004502,0.9673842608221634
5.249724862431215,0.965033730305473
5.263431715857928,0.9650674376408338
5.2771385692846415,0.9652123742031472
5.290845422711355,0.9660762220792946
5.304552276138068,0.9671657659386793
5.318259129564782,0.9693623600195015
5.331965982991496,0.9741690121276071
5.345672836418209,0.9787241948073978
5.359379689844922,0.9877179276275484
5.3730865432716355,0.9916623673220523
5.386793396698349,0.9991168711838082
5.400500250125062,1.006959800985768
5.414207103551775,1.0137172493799549
5.427913956978489,1.0198902469916138
5.441620810405202,1.0269340140996501
5.455327663831915,1.0343640554032825
5.4690345172586285,1.0369029650391115
5.482741370685342,1.0408350535356725
5.496448224112055,1.042181957189131
5.510155077538768,1.044628527975314
5.523861930965483,1.0420376537636455
5.537568784392196,1.0413299679796777
5.551275637818909,1.0375442555595304
5.5649824912456225,1.0335447675040292
5.578689344672336,1.027345495903225
5.592396198099049,1.0219393082164963
5.606103051525762,1.017888401149787
5.619809904952476,1.0094077433914537
5.633516758379189,1.0041071349796988
5.647223611805902,0.9995147852045969
5.660930465232616,0.9932707019225764
5.674637318659329,0.9897992323532018
5.688344172086042,0.9872191137648388
5.7020510255127554,0.9835998441455016
5.71575787893947,0.9852775138265606
5.729464732366183,0.9856293630535421
5.743171585792896,0.9883123888044678
5.7568784392196095,0.989615053393112
5.770585292646323,0.9922909119292221
5.784292146073036,0.9933196180641989
5.797998999499749,0.9988092027957113
5.811705852926463,1.0017072192527874
5.825412706353176,1.0051230746333173
5.839119559779889,1.0093158367807737
5.852826413206603,1.0136380946844201
5.866533266633316,1.0136577659626622
5.880240120060029,1.016360797075842
5.8939469734867425,1.0173936854963177
5.907653826913456,1.0203216252150593
5.92136068034017,1.0196773407080795
5.935067533766883,1.020291089986324
5.9487743871935965,1.0213475770927005
5.96248124062031,1.021477895087786
5.976188094047023,1.0180573375610005
5.989894947473736,1.0223281922460095
6.00360180090045,1.0221589877697665
6.017308654327163,1.022724741032501
6.031015507753876,1.0254878843745923
6.04472236118059,1.0285665242933122
6.058429214607303,1.0295364096370951
6.072136068034016,1.033358344394537
6.0858429214607295,1.0360508114215863
6.099549774887443,1.0403537068825992
6.113256628314156,1.0428584062939819
6.12696348174087,1.0454579956080854
6.1406703351675835,1.0488728272722783
6.154377188594297,1.0518966335312643
6.16808404202101,1.0523715312773387
6.181790895447723,1.051378887709124
6.195497748874437,1.05072651392207
6.20920460230115,1.0479985936346317
6.222911455727863,1.0446744477843448
6.236618309154577,1.0408922304111639
6.25032516258129,1.0359668202294237
6.264032016008003,1.0287537742517605
6.2777388694347165,1.0239145341048386
6.29144572286143,1.0170426053517012
6.305152576288143,1.0092349213069887
6.318859429714857,1.0025666908023596
6.3325662831415706,0.9962768483859201
6.346273136568284,0.9896679857362954
6.359979989994997,0.9863988808140921
6.37368684342171,0.9820453920169047
6.387393696848424,0.9809204922072635
6.401100550275137,0.9792621947115541
6.41480740370185,0.9809939948651356
6.428514257128564,0.9822713789069782
6.442221110555277,0.9835384507224731
6.45592796398199,0.9897247573863689
6.4696348174087035,0.9955067752017326
6.483341670835417,1.0007407810943807
6.49704852426213,1.008282682596152
6.510755377688843,1.011670863978624
6.524462231115558,1.0189940273366453
6.538169084542271,1.0253863442439866
6.551875937968984,1.0292898577348728
6.5655827913956974,1.0310673541138484
6.579289644822411,1.0357163074048283
6.592996498249124,1.0380505523892056
6.606703351675837,1.039354244037919
6.620410205102551,1.0379139997532825
6.634117058529264,1.0380813188523017
6.647823911955977,1.0339522539156836
6.6615307653826905,1.0320289042929345
6.675237618809404,1.028411732590978
6.688944472236117,1.0251530915602969
6.70265132566283,1.02262805754189
6.716358179089544,1.01921879936071
6.730065032516258,1.0143366530697413
6.743771885942971,1.012618508625773
6.7574787393696845,1.0116510076433687
6.771185592796398,1.0086720773563616
6.784892446223111,1.0062601476085666
6.798599299649824,1.004867037311293
6.812306153076538,1.0048610568966863
6.826013006503251,1.0056544679712294
6.839719859929964,1.0034260891107778
6.8534267133566775,1.0044052747145544
6.867133566783391,1.0024969039211036
6.880840420210104,1.001526624539073
6.894547273636817,1.0005797832710284
6.908254127063531,0.9979750658733929
6.921960980490245,0.9944941937718467
6.935667833916958,0.9917267008931587
6.9493746873436715,0.9885750729794262
6.963081540770385,0.9856388652551723
6.976788394197098,0.9798656928106705
6.990495247623811,0.9766180774348813
7.004202101050525,0.9714013639853979
7.017908954477238,0.9684716330041077
7.031615807903951,0.9647811894021381
7.0453226613306645,0.9623823435224709
7.059029514757378,0.961249777174118
7.072736368184091,0.9598743288267007
7.086443221610804,0.9587325879428548
7.100150075037518,0.9609533360748058
7.113856928464231,0.9629311255766801
7.127563781890945,0.9656221793703181
7.1412706353176585,0.9702669299151051
7.154977488744372,0.9751037873616396
7.168684342171085,0.9781986115382738
7.182391195597798,0.9888939161026393
7.196098049024512,0.9942963556076269
7.209804902451225,1.0009415156883152
7.223511755877938,1.006847818558448
7.2372186093046516,1.01171106408476
7.250925462731365,1.0167642084103345
7.264632316158078,1.0177417109906277
7.278339169584791,1.021068552938902
7.292046023011505,1.0220915999423483
7.305752876438218,1.0186020572434202
7.319459729864932,1.0179235442548975
7.3331665832916455,1.0151758347328566
7.346873436718359,1.0100019633504982
