time,flux
0.0,1.0014764792579205
0.013706853426713355,0.9976910187002372
0.02741370685342671,0.9935228101798347
0.041120560280140064,0.990188956597494
0.05482741370685342,0.9858084780316144
0.06853426713356678,0.9833755551862515
0.08224112056028013,0.9812356227193453
0.09594797398699349,0.9799614808201859
0.10965482741370684,0.9794455598391932
0.1233616808404202,0.9796685869308073
0.13706853426713356,0.9810067469293178
0.1507753876938469,0.9841106994403822
0.16448224112056026,0.985742726407573
0.1781890945472736,0.9896737248901334
0.19189594797398699,0.9936582869095875
0.20560280140070034,0.9972133451073001
0.21930965482741369,1.000709333926602
0.23301650825412704,1.0062897652252696
0.2467233616808404,1.0093219620414111
0.26043021510755376,1.0137234525870777
0.2741370685342671,1.0165944571776622
0.28784392196098046,1.0181912637288704
0.3015507753876938,1.0191513412836857
0.31525762881440716,1.0192834211100754
0.3289644822411205,1.0206810425927328
0.34267133566783387,1.018729284684767
0.3563781890945472,1.0172403660198073
0.3700850425212606,1.014073999955708
0.38379189594797397,1.010356399669425
0.3974987493746873,1.0071701070973433
0.41120560280140067,1.003106510580319
0.424912456228114,0.9983196914003769
0.43861930965482737,0.9936292024838818
0.4523261630815407,0.9896555142719023
0.46603301650825407,0.9866291957758111
0.4797398699349674,0.9846000236712306
0.4934467233616808,0.9810043957710342
0.5071535767883941,0.9810434940207354
0.5208604302151075,0.9797444893382434
0.5345672836418208,0.9788716565776032
0.5482741370685342,0.9804572965032752
0.5619809904952475,0.9835597335377623
0.5756878439219609,0.9860343137221679
0.5893946973486743,0.9890646981073987
0.6031015507753876,0.9926553922906581
0.616808404202101,0.9965672846691314
0.6305152576288143,1.0011682829125403
0.6442221110555277,1.0054188348832225
0.657928964482241,1.0092813264207932
0.6716358179089544,1.0120852937746994
0.6853426713356677,1.0157184975044469
0.6990495247623811,1.018128052774581
0.7127563781890944,1.0197483801187834
0.7264632316158078,1.0203565705117177
0.7401700850425212,1.0209442328913396
0.7538769384692345,1.0200979860904307
0.7675837918959479,1.0174679564023659
0.7812906453226612,1.0152757279013565
0.7949974987493746,1.0118352649482698
0.8087043521760879,1.0072254347909368
0.8224112056028013,1.0038129866191912
0.8361180590295146,0.9994683165186138
0.849824912456228,0.995214593555528
0.8635317658829413,0.9913704156496169
0.8772386193096547,0.9873781363586835
0.8909454727363681,0.9853612814069652
0.9046523261630814,0.9823991924348139
0.9183591795897948,0.9806859436908587
0.9320660330165081,0.9794884437651586
0.9457728864432215,0.9806992516827971
0.9594797398699348,0.9811959647162911
0.9731865932966483,0.982692852930284
0.9868934467233615,0.9858707512379676
1.000600300150075,0.989095969862014
1.0143071535767882,0.9914942809035204
1.0280140070035018,0.9955329687592237
1.041720860430215,1.000112052206511
1.0554277138569284,1.0040572762470679
1.0691345672836416,1.0091824491069996
1.0828414207103552,1.0125198147354046
1.0965482741370685,1.0150973903071878
1.1102551275637818,1.0181528311838914
1.123961980990495,1.01941873907039
1.1376688344172086,1.0196313384096751
1.1513756878439219,1.0196208104205866
1.1650825412706352,1.0201675682904439
1.1787893946973487,1.0176176573630664
1.192496248124062,1.0156237846858134
1.2062031015507753,1.0129486151936418
1.2199099549774886,1.0084726564502018
1.233616808404202,1.004851653580902
1.2473236618309154,1.0018604595191545
1.2610305152576287,0.9957650997182367
1.274737368684342,0.9918751975073353
1.2884442221110555,0.9884173680633509
1.3021510755377688,0.9864723986520826
1.315857928964482,0.9825500422910043
1.3295647823911956,0.9810482643316316
1.3432716358179089,0.9803940691044314
1.3569784892446222,0.9795997803724303
1.3706853426713355,0.9799919782901331
1.384392196098049,0.98186751921939
1.3980990495247623,0.9842600869796774
1.4118059029514756,0.9867864563481898
1.4255127563781889,0.9910180236779389
1.4392196098049024,0.9951273123926315
1.4529264632316157,0.9997018560576286
1.466633316658329,1.0033925349622792
1.4803401700850425,1.0077520876148396
1.4940470235117558,1.011632439472017
1.507753876938469,1.0149266791086882
1.5214607303651824,1.0172143171843473
1.5351675837918959,1.018963413723262
1.5488744372186092,1.0203472061936711
1.5625812906453225,1.0204669806263187
1.5762881440720358,1.020813699952551
1.5899949974987493,1.0183975125904268
1.6037018509254626,1.0166012582658754
1.6174087043521759,1.0131897924855826
1.6311155577788894,1.0100663149532756
1.6448224112056027,1.005352133337016
1.658529264632316,1.0003431536478626
1.6722361180590293,0.9975476177768587
1.6859429714857428,0.9931255817949854
1.699649824912456,0.9889842658429031
1.7133566783391694,0.9859662271571066
1.7270635317658827,0.983227660028696
1.7407703851925962,0.9803764724819013
1.7544772386193095,0.9796767968788498
1.7681840920460228,0.9798323233032176
1.7818909454727363,0.9805214483005606
1.7955977988994496,0.9819608576406506
1.8093046523261629,0.98442099244034
1.8230115057528762,0.9857565374592524
1.8367183591795897,0.9907312077377515
1.850425212606303,0.9947758914903422
1.8641320660330163,0.999312397730166
1.8778389194597296,1.0039698377024626
1.891545772886443,1.0060063865377533
1.9052526263131564,1.0106908191675845
1.9189594797398697,1.0137126623019803
1.9326663331665832,1.0184234145957507
1.9463731865932965,1.0182328109427514
1.9600800400200098,1.0199071572277183
1.973786893446723,1.020474571430872
1.9874937468734366,1.0199955724570555
2.00120060030015,1.0189215904754128
2.014907453726863,1.0158967740223444
2.0286143071535765,1.0138334971205878
2.04232116058029,1.010051628743531
2.0560280140070035,1.0070909927462468
2.069734867433717,1.0031430860762407
2.08344172086043,0.9972372692366808
2.0971485742871434,0.9937232422939044
2.1108554277138567,0.9897827796312856
2.12456228114057,0.9862435932176657
2.1382691345672833,0.9827490894007571
2.1519759879939966,0.9812536414873401
2.1656828414207103,0.9798208373487183
2.1793896948474236,0.9793653042580708
2.193096548274137,0.9793386906276668
2.20680340170085,0.981071166317623
2.2205102551275635,0.9838755063723561
2.234217108554277,0.9862463344928274
2.24792396198099,0.9902779490501629
2.261630815407704,0.9935283824725643
2.275337668834417,0.997349156033803
2.2890445222611304,1.0027317739672001
2.3027513756878437,1.0061066924132485
2.316458229114557,1.0106966555683594
2.3301650825412703,1.013331899151922
2.3438719359679836,1.0172290953886385
2.3575787893946973,1.0200577649011013
2.3712856428214106,1.0201712755058918
2.384992496248124,1.0201934566750286
2.3986993496748372,1.0198264846890337
2.4124062031015505,1.0196551953800637
2.426113056528264,1.0167363844005919
2.439819909954977,1.0141006974007716
2.4535267633816904,1.010083262321724
2.467233616808404,1.0072444868425585
2.4809404702351174,1.0036020346684327
2.4946473236618307,0.9989365025075914
2.508354177088544,0.9942319883376327
2.5220610305152573,0.9907137735826237
2.5357678839419706,0.987006298477673
2.549474737368684,0.9845451945980352
2.5631815907953976,0.980790170844926
2.576888444222111,0.9809642524883837
2.5905952976488242,0.9800757747421738
2.6043021510755375,0.9797002982415127
2.618009004502251,0.9804426505515786
2.631715857928964,0.9832116593885525
2.6454227113556774,0.9859917171564242
2.659129564782391,0.9886840715402967
2.6728364182091044,0.9920945490757129
2.6865432716358177,0.9975311680113216
2.700250125062531,1.0005866737677667
2.7139569784892443,1.0065024037908368
2.7276638319159576,1.00964083757246
2.741370685342671,1.0122355988151244
2.755077538769384,1.0158747903153411
2.768784392196098,1.017797780777465
2.7824912456228112,1.0194665325766805
2.7961980990495245,1.0213757338858684
2.809904952476238,1.0200103585877747
2.823611805902951,1.019245198750121
2.8373186593296644,1.0170158418711368
2.8510255127563777,1.0155894457059922
2.8647323661830915,1.0116854574665994
2.8784392196098048,1.0068347123598376
2.892146073036518,1.003703606402121
2.9058529264632313,0.9998601062276747
2.9195597798899446,0.9941942745404055
2.933266633316658,0.9923715800728655
2.9469734867433712,0.9880493471280347
2.960680340170085,0.983415859013636
2.9743871935967983,0.9816901760689581
2.9880940470235116,0.9797419465372974
3.001800900450225,0.9787891308339486
3.015507753876938,0.9798717491247082
3.0292146073036514,0.9806541287695251
3.0429214607303647,0.9831865724977001
3.056628314157078,0.9851568714278833
3.0703351675837918,0.987748882978471
3.084042021010505,0.9926602234838894
3.0977488744372184,0.9974141866594298
3.1114557278639317,1.0003805595334117
3.125162581290645,1.0041968891322481
3.1388694347173582,1.008581159787091
3.1525762881440715,1.0120826925129371
3.1662831415707853,1.0153948787334475
3.1799899949974986,1.0186142891997798
3.193696848424212,1.019801652156544
3.207403701850925,1.0205422247687266
3.2211105552776385,1.020956944970136
3.2348174087043517,1.0193818066224507
3.248524262131065,1.0185350477743482
3.262231115557779,1.015689771901369
3.275937968984492,1.012129536631618
3.2896448224112054,1.0089608618005377
3.3033516758379187,1.0047406890131003
3.317058529264632,1.0002728332998456
3.3307653826913453,0.9955523277627574
3.3444722361180586,0.9923697730261042
3.358179089544772,0.9871330822376113
3.3718859429714856,0.9857683829034166
3.385592796398199,0.983177323853712
3.399299649824912,0.9808175947068476
3.4130065032516255,0.9797656815501274
3.4267133566783388,0.9802185800463246
3.440420210105052,0.9810027126820771
3.4541270635317654,0.9831984902757006
3.467833916958479,0.9845118173409809
3.4815407703851924,0.9876216774651094
3.4952476238119057,0.9900922672874387
3.508954477238619,0.9951822212741682
3.5226613306653323,0.9990384221139815
3.5363681840920456,1.0050895165372957
3.550075037518759,1.007640870728155
3.5637818909454726,1.012522255644185
3.577488744372186,1.0146195067408965
3.591195597798899,1.0176169219560762
3.6049024512256125,1.0190980169618826
3.6186093046523258,1.0198458993275723
3.632316158079039,1.020066775652477
3.6460230115057524,1.0193962062781554
3.659729864932466,1.0184181845000957
3.6734367183591794,1.015192729417132
3.6871435717858927,1.0123612959567383
3.700850425212606,1.0075650872549327
3.7145572786393193,1.0049706138618735
3.7282641320660326,1.0007927818478923
3.741970985492746,0.9961402380194435
3.755677838919459,0.9925905041536686
3.769384692346173,0.9892487823500659
3.783091545772886,0.9845283874330312
3.7967983991995995,0.9831971340479008
3.810505252626313,0.9814256039849787
3.824212106053026,0.9804525890791672
3.8379189594797394,0.9795111631723852
3.8516258129064527,0.9812735073053844
3.8653326663331664,0.9821538072228331
3.8790395197598797,0.9845969797178038
3.892746373186593,0.9863054721795341
3.9064532266133063,0.990271246004047
3.9201600800400196,0.9950421643299256
3.933866933466733,0.9994676330519009
3.947573786893446,1.003194690360064
3.96128064032016,1.0066839012003268
3.974987493746873,1.0106607825361038
3.9886943471735865,1.0130547014473716
4.0024012006003,1.017941094548802
4.016108054027013,1.0185494322990043
4.029814907453726,1.0202257888170325
4.04352176088044,1.019795022492584
4.057228614307153,1.0200726936776896
4.070935467733866,1.0184043798830835
4.08464232116058,1.0172710550912951
4.098349174587293,1.0131870205811198
4.112056028014007,1.0102118007657779
4.12576288144072,1.0065818412966243
4.139469734867434,1.0010448017570748
4.153176588294147,0.9974450122548127
4.16688344172086,0.9928749820064633
4.1805902951475735,0.9894787359368867
4.194297148574287,0.9849807075596246
4.208004002001,0.9831040782645397
4.221710855427713,0.9811322264698709
4.235417708854427,0.980065277760467
4.24912456228114,0.9785790950491643
4.262831415707853,0.97998975291037
4.276538269134567,0.9816094094674205
4.29024512256128,0.9837498250100767
4.303951975987993,0.9860542206453592
4.317658829414707,0.9895318261578784
4.331365682841421,0.993854871371052
4.345072536268134,0.9970535339171144
4.358779389694847,1.0023264724465648
4.3724862431215605,1.0065030840444253
4.386193096548274,1.0104865033780024
4.399899949974987,1.0135769313643834
4.4136068034017,1.013838646164698
4.427313656828414,1.01869263884309
4.441020510255127,1.019215948470995
4.45472736368184,1.0200923198263108
4.468434217108554,1.0200474984645924
4.482141070535267,1.0188198865108284
4.49584792396198,1.0161665519755518
4.5095547773886935,1.0135741661067874
4.523261630815408,1.0093923269089917
4.536968484242121,1.0062245115313908
4.550675337668834,1.0019905658582804
4.5643821910955475,0.9978500419792907
4.578089044522261,0.9936727719894863
4.591795897948974,0.9891693880781092
4.605502751375687,0.9874099575327531
4.619209604802401,0.9844670182104096
4.632916458229114,0.9807286708978046
4.646623311655827,0.9797584052169559
4.660330165082541,0.9791187268437929
4.674037018509254,0.9806761587648934
4.687743871935967,0.9799721286872964
4.7014507253626805,0.9828419162026527
4.715157578789395,0.9859148129624322
4.728864432216108,0.9885232486115174
4.742571285642821,0.9930819127987774
4.756278139069535,0.9968156253191526
4.769984992496248,1.0004356002877943
4.783691845922961,1.0050422322245718
4.7973986993496744,1.0086461381190914
4.811105552776388,1.0119250427028563
4.824812406203101,1.0156720993567436
4.838519259629814,1.0188655715953359
4.852226113056528,1.0188578814735814
4.865932966483241,1.0206886510790667
4.879639819909954,1.0192842886279985
4.8933466733366675,1.0201365626528611
4.907053526763381,1.0168169537118372
4.920760380190095,1.0150341731076957
4.934467233616808,1.011506786860001
4.948174087043522,1.0076466241822857
4.961880940470235,1.0041046701126464
4.975587793896948,0.9982545313722981
4.9892946473236615,0.9958837008917657
5.003001500750375,0.990737484979908
5.016708354177088,0.9881386794687773
5.030415207603801,0.9837367689770393
5.044122061030515,0.9815682465891604
5.057828914457228,0.9802416287587802
5.071535767883941,0.9797555771451241
5.0852426213106545,0.9805739711330661
5.098949474737368,0.9808875139820928
5.112656328164081,0.9831285970074842
5.126363181590795,0.9855141479331315
5.140070035017509,0.988941600364821
5.153776888444222,0.9918804113982188
5.167483741870935,0.9965740098106866
5.1811905952976485,1.0014309091673705
5.194897448724362,1.0054596853662197
5.208604302151075,1.009390452837226
5.222311155577788,1.0115400794162985
5.236018009004502,1.0156493608835118
5.249724862431215,1.0181010022234531
5.263431715857928,1.0204931664924743
5.2771385692846415,1.0208248475247597
5.290845422711355,1.0195763697717473
5.304552276138068,1.0192380824328136
5.318259129564782,1.0176950102777604
5.331965982991496,1.0144364626133116
5.345672836418209,1.0121232597338943
5.359379689844922,1.0085325566397723
5.3730865432716355,1.002746924498426
5.386793396698349,1.000587660566711
5.400500250125062,0.9957784713509225
5.414207103551775,0.9929296862690279
5.427913956978489,0.987891665149733
5.441620810405202,0.9847936143939808
5.455327663831915,0.9829603730119977
5.4690345172586285,0.9813352599486871
5.482741370685342,0.9805515755866874
5.496448224112055,0.9793422719284025
5.510155077538768,0.9801322862792412
5.523861930965483,0.9819028629963753
5.537568784392196,0.9837160718292043
5.551275637818909,0.9874665848083812
5.5649824912456225,0.9913159888299916
5.578689344672336,0.995067917679542
5.592396198099049,0.9995621113590707
5.606103051525762,1.0041557800085374
5.619809904952476,1.008047175362936
5.633516758379189,1.011163020838251
5.647223611805902,1.0136451211461501
5.660930465232616,1.016942365128113
5.674637318659329,1.020271979149421
5.688344172086042,1.020932619641927
5.7020510255127554,1.0205488991342118
5.71575787893947,1.0196388925703375
5.729464732366183,1.0179072865064565
5.743171585792896,1.0157036046325372
5.7568784392196095,1.0121832132798088
5.770585292646323,1.0085240890795475
5.784292146073036,1.0042605100940662
5.797998999499749,1.0006914759034011
5.811705852926463,0.995659046166522
5.825412706353176,0.991854207290228
5.839119559779889,0.9884129941049219
5.852826413206603,0.9856884855292901
5.866533266633316,0.9831707323565532
5.880240120060029,0.9805630209402506
5.8939469734867425,0.9800087632870537
5.907653826913456,0.9795980288207333
5.92136068034017,0.9798282087960059
5.935067533766883,0.9819974504487727
5.9487743871935965,0.9840335313517888
5.96248124062031,0.9866926129517756
5.976188094047023,0.9900713623031235
5.989894947473736,0.9948492539644626
6.00360180090045,0.998777563312414
6.017308654327163,1.001630262955699
6.031015507753876,1.0068733632642024
6.04472236118059,1.0107722199152716
6.058429214607303,1.0142335870082606
6.072136068034016,1.0168425196144508
6.0858429214607295,1.0182148556787056
6.099549774887443,1.0204165799891167
6.113256628314156,1.0211573986876115
6.12696348174087,1.0204353235704684
6.1406703351675835,1.0181648148196685
6.154377188594297,1.0162185282874263
6.16808404202101,1.0134007250252208
6.181790895447723,1.009853580303662
6.195497748874437,1.0053891960016261
6.20920460230115,1.0020149508179548
6.222911455727863,0.9976440042294524
6.236618309154577,0.9929695744509968
6.25032516258129,0.9892409418557736
6.264032016008003,0.9854618916996998
6.2777388694347165,0.9828889258244745
6.29144572286143,0.9815056212642235
6.305152576288143,0.9802362907823307
6.318859429714857,0.9796954439562909
6.3325662831415706,0.980043336661276
6.346273136568284,0.9821076503497351
6.359979989994997,0.9834421767704045
6.37368684342171,0.986211102492253
6.387393696848424,0.9905309684182633
6.401100550275137,0.9936968261461177
6.41480740370185,0.9984866882133245
6.428514257128564,1.0017637684797278
6.442221110555277,1.0067556937011637
6.45592796398199,1.0098926644024753
6.4696348174087035,1.0134468687024314
6.483341670835417,1.0155320469447668
6.49704852426213,1.0197245239502473
6.510755377688843,1.019707509405371
6.524462231115558,1.0205930121412004
6.538169084542271,1.0199858402922937
6.551875937968984,1.017967549665701
6.5655827913956974,1.0164488805628644
6.579289644822411,1.0146249019197504
6.592996498249124,1.0092262306665647
6.606703351675837,1.006725757273754
6.620410205102551,1.0032307549107382
6.634117058529264,0.9978229619682139
6.647823911955977,0.9940995316060927
6.6615307653826905,0.991144520736653
6.675237618809404,0.9869535933502055
6.688944472236117,0.9836761602177143
6.70265132566283,0.9819119983042519
6.716358179089544,0.9802864718523866
6.730065032516258,0.9796465758803213
6.743771885942971,0.9793309042746925
6.7574787393696845,0.9810757884179241
6.771185592796398,0.9828206426025131
6.784892446223111,0.9855836472332673
6.798599299649824,0.9905388856557432
6.812306153076538,0.9927399585631308
6.826013006503251,0.9982590600786388
6.839719859929964,1.0010654633950784
6.8534267133566775,1.0054520456594909
6.867133566783391,1.0100473343136058
6.880840420210104,1.0134763149675003
6.894547273636817,1.0163135337286076
6.908254127063531,1.0187497666713419
6.921960980490245,1.019677221036754
6.935667833916958,1.0205527632024274
6.9493746873436715,1.0202113225408438
6.963081540770385,1.0192562686538122
6.976788394197098,1.0163605046608724
6.990495247623811,1.0146350492763199
7.004202101050525,1.0110633980350618
7.017908954477238,1.0061128819209328
7.031615807903951,1.0026565639986091
7.0453226613306645,0.9982974922105812
7.059029514757378,0.9943151562072795
7.072736368184091,0.9901092170848445
7.086443221610804,0.9876591895253723
7.100150075037518,0.9846244800539327
7.113856928464231,0.9819855831794586
7.127563781890945,0.9802736036571559
7.1412706353176585,0.978581383012661
7.154977488744372,0.9801946063784613
7.168684342171085,0.9820357559466113
7.182391195597798,0.9826031682666989
7.196098049024512,0.9859068171577141
7.209804902451225,0.9880420222858308
7.223511755877938,0.991366720211546
7.2372186093046516,0.9963840603592726
7.250925462731365,1.0006299691774274
7.264632316158078,1.0040706790124128
7.278339169584791,1.0092741636353146
7.292046023011505,1.0117946297695302
7.305752876438218,1.016269264385325
7.319459729864932,1.018735026058521
7.3331665832916455,1.0190291324305156
7.346873436718359,1.0209493983319011
