time,flux
0.0,1.0260424899079639
0.013706853426713355,1.0300405131101675
0.02741370685342671,1.0303982052016047
0.041120560280140064,1.0309157023272113
0.05482741370685342,1.032009655557863
0.06853426713356678,1.0280345141373664
0.08224112056028013,1.0251640324281042
0.09594797398699349,1.0203078976315285
0.10965482741370684,1.0167761593265259
0.1233616808404202,1.0107187216634097
0.13706853426713356,1.0059595637555816
0.1507753876938469,0.9989987196455704
0.16448224112056026,0.9924937557800896
0.1781890945472736,0.9853459254672966
0.19189594797398699,0.9805732908039587
0.20560280140070034,0.9759586833362572
0.21930965482741369,0.9720609286626021
0.23301650825412704,0.9694937287389224
0.2467233616808404,0.9674351963355861
0.26043021510755376,0.9681457794099261
0.2741370685342671,0.9674412320976475
0.28784392196098046,0.9684554363645188
0.3015507753876938,0.9718012446967238
0.31525762881440716,0.9756876606374493
0.3289644822411205,0.9796265883762757
0.34267133566783387,0.9851465974746128
0.3563781890945472,0.9898233407050739
0.3700850425212606,0.9977437829174626
0.38379189594797397,1.0026999445077178
0.3974987493746873,1.00775213210293
0.41120560280140067,1.0135456354196466
0.424912456228114,1.0185008166969725
0.43861930965482737,1.0225670405675098
0.4523261630815407,1.0240411956940616
0.46603301650825407,1.025140783227707
0.4797398699349674,1.027196531692267
0.4934467233616808,1.0276086073524184
0.5071535767883941,1.0259224279073635
0.5208604302151075,1.0234063397957889
0.5345672836418208,1.0222906008864026
0.5482741370685342,1.0179655900980333
0.5619809904952475,1.0143665183972999
0.5756878439219609,1.0097124101098998
0.5893946973486743,1.006939161227229
0.6031015507753876,1.0020832632624912
0.616808404202101,0.9983499822030386
0.6305152576288143,0.9941161860740605
0.6442221110555277,0.990731078776528
0.657928964482241,0.9887011315575185
0.6716358179089544,0.9865507708705189
0.6853426713356677,0.9850318840864779
0.6990495247623811,0.984366418413279
0.7127563781890944,0.9853023842168269
0.7264632316158078,0.9854998688016829
0.7401700850425212,0.9858443594903123
0.7538769384692345,0.9879984644195833
0.7675837918959479,0.9901726742045842
0.7812906453226612,0.991977299884884
0.7949974987493746,0.9929191958969288
0.8087043521760879,0.9946198106088078
0.8224112056028013,0.9965440962446841
0.8361180590295146,0.997692263471861
0.849824912456228,0.9977598306987963
0.8635317658829413,1.0003482864797921
0.8772386193096547,1.0008750154080932
0.8909454727363681,0.999065672721345
0.9046523261630814,0.9999693783393634
0.9183591795897948,0.9994935860493263
0.9320660330165081,0.9996609061713829
0.9457728864432215,0.9987277325193993
0.9594797398699348,0.9981914615392699
0.9731865932966483,0.9977530855998475
0.9868934467233615,0.9977819096024925
1.000600300150075,0.9984049128889622
1.0143071535767882,0.9990990293555477
1.0280140070035018,0.9997952017245925
1.041720860430215,1.000397861394942
1.0554277138569284,1.0026471256630896
1.0691345672836416,1.0055353722540863
1.0828414207103552,1.0067535726618522
1.0965482741370685,1.0094564590793758
1.1102551275637818,1.0112398628968595
1.123961980990495,1.0128094699823875
1.1376688344172086,1.0145158208393603
1.1513756878439219,1.0152500414685954
1.1650825412706352,1.0160075638370405
1.1787893946973487,1.0174524637810725
1.192496248124062,1.0178106213955143
1.2062031015507753,1.0155291278958423
1.2199099549774886,1.0127863279217204
1.233616808404202,1.0110146325250713
1.2473236618309154,1.0082877642281
1.2610305152576287,1.0045909012397756
1.274737368684342,1.0002622862885622
1.2884442221110555,0.9966851533107692
1.3021510755377688,0.9908696403114181
1.315857928964482,0.9876154928393766
1.3295647823911956,0.9841805815996437
1.3432716358179089,0.978439753324248
1.3569784892446222,0.9771344777948393
1.3706853426713355,0.9743357315411334
1.384392196098049,0.9716256983955548
1.3980990495247623,0.9710553830685433
1.4118059029514756,0.9721088548076645
1.4255127563781889,0.9731175991112478
1.4392196098049024,0.9764098912035852
1.4529264632316157,0.9798295653418113
1.466633316658329,0.9829194815535146
1.4803401700850425,0.9876016615927631
1.4940470235117558,0.9935769420319431
1.507753876938469,1.000021723858472
1.5214607303651824,1.007301070868541
1.5351675837918959,1.0123327337250734
1.5488744372186092,1.0169330929005227
1.5625812906453225,1.022964417940251
1.5762881440720358,1.0272823429537719
1.5899949974987493,1.0300109200440903
1.6037018509254626,1.0307295847126436
1.6174087043521759,1.0326685203512163
1.6311155577788894,1.033211842733281
1.6448224112056027,1.0319874346927662
1.658529264632316,1.0291367248547094
1.6722361180590293,1.027185591397909
1.6859429714857428,1.0212736498826385
1.699649824912456,1.0173383536610243
1.7133566783391694,1.0118760197421353
1.7270635317658827,1.004742776757819
1.7407703851925962,0.9992267878378756
1.7544772386193095,0.9937702987353493
1.7681840920460228,0.9881563426056856
1.7818909454727363,0.981402108839053
1.7955977988994496,0.9777834301799416
1.8093046523261629,0.9749248884868192
1.8230115057528762,0.9711116417518109
1.8367183591795897,0.9711473819998329
1.850425212606303,0.970075463810817
1.8641320660330163,0.9702777047212534
1.8778389194597296,0.9728091163315532
1.891545772886443,0.9743397618286389
1.9052526263131564,0.9783294107730846
1.9189594797398697,0.9828023195772205
1.9326663331665832,0.9876067731818495
1.9463731865932965,0.9912207961319498
1.9600800400200098,0.9964229659700803
1.973786893446723,1.0010257624703882
1.9874937468734366,1.006185134303674
2.00120060030015,1.0107163382410365
2.014907453726863,1.0135411013731337
2.0286143071535765,1.0163216185877575
2.04232116058029,1.0183347545094479
2.0560280140070035,1.0176353156577134
2.069734867433717,1.0194478519356651
2.08344172086043,1.0196109696095614
2.0971485742871434,1.018718849947348
2.1108554277138567,1.0183798932323873
2.12456228114057,1.0154256550742464
2.1382691345672833,1.0125523424320684
2.1519759879939966,1.010579763153379
2.1656828414207103,1.0078824932026933
2.1793896948474236,1.0055698849113672
2.193096548274137,1.0031770632798724
2.20680340170085,1.0010094080669196
2.2205102551275635,1.0000361527925397
2.234217108554277,0.9968599693067636
2.24792396198099,0.9971103539267175
2.261630815407704,0.9941693658500339
2.275337668834417,0.9959936877517251
2.2890445222611304,0.9946686432892923
2.3027513756878437,0.9955127412968419
2.316458229114557,0.9963383612668016
2.3301650825412703,0.9969514496082441
2.3438719359679836,0.9966487892412033
2.3575787893946973,0.9980831255061783
2.3712856428214106,0.9976593623602846
2.384992496248124,0.9972712740493326
2.3986993496748372,0.9973323351315483
2.4124062031015505,0.9974577169981396
2.426113056528264,0.9956916874892228
2.439819909954977,0.9955230269861437
2.4535267633816904,0.9936421656602576
2.467233616808404,0.9937763598264792
2.4809404702351174,0.9922860933014411
2.4946473236618307,0.9901277119324751
2.508354177088544,0.9887233472367273
2.5220610305152573,0.9888065770495852
2.5357678839419706,0.9873847271956695
2.549474737368684,0.9876131122578375
2.5631815907953976,0.9883130901205006
2.576888444222111,0.988770567684178
2.5905952976488242,0.9907396528801878
2.6043021510755375,0.9935211731985455
2.618009004502251,0.9954074748025953
2.631715857928964,0.9989942071452679
2.6454227113556774,1.0031170882890368
2.659129564782391,1.0070449597225397
2.6728364182091044,1.0094850005652227
2.6865432716358177,1.0133665470761983
2.700250125062531,1.0166951015353525
2.7139569784892443,1.0202122499098571
2.7276638319159576,1.0224887253675592
2.741370685342671,1.0245883969897787
2.755077538769384,1.024677255544848
2.768784392196098,1.0261954765005845
2.7824912456228112,1.023927153839296
2.7961980990495245,1.0230476059160665
2.809904952476238,1.0192104517121738
2.823611805902951,1.0158275564442507
2.8373186593296644,1.01199907607347
2.8510255127563777,1.0063951496488306
2.8647323661830915,1.0012380449582126
2.8784392196098048,0.9964589109852291
2.892146073036518,0.9893515042954181
2.9058529264632313,0.9850286981927774
2.9195597798899446,0.9810549621509649
2.933266633316658,0.9744067532041428
2.9469734867433712,0.9720778851263955
2.960680340170085,0.9703338618638353
2.9743871935967983,0.9676286105235412
2.9880940470235116,0.966436151957712
3.001800900450225,0.9686822730780713
3.015507753876938,0.9704086300693202
3.0292146073036514,0.9738389743506621
3.0429214607303647,0.9775026905535581
3.056628314157078,0.9811992661357368
3.0703351675837918,0.9867574178885448
3.084042021010505,0.9930114619393727
3.0977488744372184,0.9992669723775526
3.1114557278639317,1.0049038524563945
3.125162581290645,1.0116488503044825
3.1388694347173582,1.0169428551450697
3.1525762881440715,1.0218531036992793
3.1662831415707853,1.026088727278546
3.1799899949974986,1.0298556735268694
3.193696848424212,1.0319178242996712
3.207403701850925,1.031255210330561
3.2211105552776385,1.030977351121283
3.2348174087043517,1.0311186604747624
3.248524262131065,1.0289937385266599
3.262231115557779,1.0238763053451914
3.275937968984492,1.0207387097488982
3.2896448224112054,1.0159974865134336
3.3033516758379187,1.0105223872489053
3.317058529264632,1.0056174842341392
3.3307653826913453,0.9990502535720004
3.3444722361180586,0.9944292403703551
3.358179089544772,0.988902799805329
3.3718859429714856,0.985624908731859
3.385592796398199,0.9816546403767659
3.399299649824912,0.9787738865065198
3.4130065032516255,0.9765686265451464
3.4267133566783388,0.9762551919814133
3.440420210105052,0.9753615839921429
3.4541270635317654,0.9772480275593705
3.467833916958479,0.9786083296773991
3.4815407703851924,0.9797856195306177
3.4952476238119057,0.9839599675443709
3.508954477238619,0.9861647689967826
3.5226613306653323,0.9904878473005807
3.5363681840920456,0.9927053154459011
3.550075037518759,0.9966967760318275
3.5637818909454726,0.9993052515435282
3.577488744372186,1.002964133034171
3.591195597798899,1.0057310686792413
3.6049024512256125,1.0074096916010284
3.6186093046523258,1.0086918242999492
3.632316158079039,1.009311917755
3.6460230115057524,1.0110174769438955
3.659729864932466,1.0103370034414414
3.6734367183591794,1.0093991216895861
3.6871435717858927,1.0080304097488855
3.700850425212606,1.0078701175170346
3.7145572786393193,1.0060658209564695
3.7282641320660326,1.0052804254532413
3.741970985492746,1.0056932483643826
3.755677838919459,1.0044829724523583
3.769384692346173,1.0031417372699516
3.783091545772886,1.0025181677316564
3.7967983991995995,1.003376897724234
3.810505252626313,1.0033951490066508
3.824212106053026,1.0035222263122172
3.8379189594797394,1.0042083223078018
3.8516258129064527,1.0052066543055653
3.8653326663331664,1.0058119161706425
3.8790395197598797,1.0062397233902545
3.892746373186593,1.006452162118461
3.9064532266133063,1.0074494281435993
3.9201600800400196,1.007149853262969
3.933866933466733,1.007032414945708
3.947573786893446,1.0056218887238626
3.96128064032016,1.0045586631541117
3.974987493746873,1.003421370176859
3.9886943471735865,1.0011066368018267
4.0024012006003,0.999688611921836
4.016108054027013,0.9950436036626885
4.029814907453726,0.9923321535467498
4.04352176088044,0.9905063395847792
4.057228614307153,0.9870866506231342
4.070935467733866,0.9834712425513152
4.08464232116058,0.9815088785920184
4.098349174587293,0.9800425888521584
4.112056028014007,0.9787037590673787
4.12576288144072,0.9785116250684315
4.139469734867434,0.9785584172639479
4.153176588294147,0.980917185108029
4.16688344172086,0.9822190712448435
4.1805902951475735,0.9855374784400732
4.194297148574287,0.9881018139721996
4.208004002001,0.9918475957909795
4.221710855427713,0.996952023735033
4.235417708854427,1.0013716854858765
4.24912456228114,1.007408238720362
4.262831415707853,1.012036298219062
4.276538269134567,1.0177014463695198
4.29024512256128,1.0218731019838947
4.303951975987993,1.0260405965939854
4.317658829414707,1.028232227239545
4.331365682841421,1.030672088019584
4.345072536268134,1.0308223838298742
4.358779389694847,1.0308918967899605
4.3724862431215605,1.0292377837534747
4.386193096548274,1.0263831729369148
4.399899949974987,1.0241122053175502
4.4136068034017,1.0202011701971532
4.427313656828414,1.013492717519681
4.441020510255127,1.0085537588905629
4.45472736368184,1.0025382089929535
4.468434217108554,0.996877897524137
4.482141070535267,0.990450209497123
4.49584792396198,0.9846363697640327
4.5095547773886935,0.9789583873434933
4.523261630815408,0.9748547585079106
4.536968484242121,0.971383792120762
4.550675337668834,0.969119776257077
4.5643821910955475,0.966458052140416
4.578089044522261,0.9667414244510514
4.591795897948974,0.9677237880532095
4.605502751375687,0.970171785668972
4.619209604802401,0.9729004205506308
4.632916458229114,0.9767547455136685
4.646623311655827,0.9815747239788456
4.660330165082541,0.987253708349375
4.674037018509254,0.9926460271820087
4.687743871935967,0.9979367230520015
4.7014507253626805,1.0047768729498543
4.715157578789395,1.0115199588597188
4.728864432216108,1.0150330142612278
4.742571285642821,1.0199043961263823
4.756278139069535,1.0232793067435602
4.769984992496248,1.025697832488512
4.783691845922961,1.0270034920581248
4.7973986993496744,1.0270650611781433
4.811105552776388,1.0273983153988873
4.824812406203101,1.026377710303216
4.838519259629814,1.0231481846014312
4.852226113056528,1.0211418969069477
4.865932966483241,1.017673267006842
4.879639819909954,1.012724804641906
4.8933466733366675,1.0093794958148687
4.907053526763381,1.0045749468848688
4.920760380190095,1.0013334387336725
4.934467233616808,0.9966541359229717
4.948174087043522,0.9930849026556158
4.961880940470235,0.9897640994414588
4.975587793896948,0.9883507723768126
4.9892946473236615,0.9860419940335596
5.003001500750375,0.9856504211969038
5.016708354177088,0.9841882980804222
5.030415207603801,0.9849028961535062
5.044122061030515,0.9867944821661481
5.057828914457228,0.9864939397037886
5.071535767883941,0.9885814383054994
5.0852426213106545,0.9908569239215295
5.098949474737368,0.9912333660976353
5.112656328164081,0.994012013235551
5.126363181590795,0.9964758491245851
5.140070035017509,0.996978624230932
5.153776888444222,0.9980366294537906
5.167483741870935,0.9991626645589706
5.1811905952976485,0.9998591583914284
5.194897448724362,0.9995177927174785
5.208604302151075,0.9998059322008729
5.222311155577788,0.9999381984738279
5.236018009004502,0.9999760409766115
5.249724862431215,0.9985592929758537
5.263431715857928,0.9978096875870748
5.2771385692846415,0.9994617388018046
5.290845422711355,0.9982826159398845
5.304552276138068,0.998353075308069
5.318259129564782,0.9991966349044104
5.331965982991496,1.0000337209565155
5.345672836418209,1.0001407004837353
5.359379689844922,1.0022743233842206
5.3730865432716355,1.003202387919928
5.386793396698349,1.0059603541609279
5.400500250125062,1.0073463964759835
5.414207103551775,1.0100117939275663
5.427913956978489,1.0111391873564057
5.441620810405202,1.013451353148926
5.455327663831915,1.0149443604086743
5.4690345172586285,1.0158575285903542
5.482741370685342,1.016560180801293
5.496448224112055,1.0171018795723867
5.510155077538768,1.015495195892589
5.523861930965483,1.0148685774559045
5.537568784392196,1.013462956421749
5.551275637818909,1.0100979854185335
5.5649824912456225,1.0073119980728
5.578689344672336,1.002775964650048
5.592396198099049,0.9979913048617912
5.606103051525762,0.9942934083594885
5.619809904952476,0.989387166805606
5.633516758379189,0.9865670153314308
5.647223611805902,0.9810282998979388
5.660930465232616,0.9786559118884148
5.674637318659329,0.9761380069993834
5.688344172086042,0.9731236783200864
5.7020510255127554,0.9724520987630109
5.71575787893947,0.9713051244541022
5.729464732366183,0.9730534999034232
5.743171585792896,0.9741648464051392
5.7568784392196095,0.9772651783528439
5.770585292646323,0.9801940752332228
5.784292146073036,0.9852395116683675
5.797998999499749,0.9910605793200385
5.811705852926463,0.996119529772348
5.825412706353176,1.001582308315861
5.839119559779889,1.0080801557895727
5.852826413206603,1.0130867965956591
5.866533266633316,1.020133410680571
5.880240120060029,1.022994958890858
5.8939469734867425,1.0276292801204725
5.907653826913456,1.0303756848867345
5.92136068034017,1.0326657495225233
5.935067533766883,1.033562578982897
5.9487743871935965,1.0330900995056063
5.96248124062031,1.0316789891553457
5.976188094047023,1.0285048506293943
5.989894947473736,1.0247687161815742
6.00360180090045,1.0195323688744105
6.017308654327163,1.0157256698292694
6.031015507753876,1.0089222226990175
6.04472236118059,1.0034146960608656
6.058429214607303,0.9970551826704128
6.072136068034016,0.9914720152388191
6.0858429214607295,0.9858401131857285
6.099549774887443,0.9803427722793754
6.113256628314156,0.9771542061360939
6.12696348174087,0.9728641955324449
6.1406703351675835,0.9709605499981063
6.154377188594297,0.9697689776214468
6.16808404202101,0.9703477554169734
6.181790895447723,0.971093820437267
6.195497748874437,0.9718941654945933
6.20920460230115,0.9755880451592202
6.222911455727863,0.9804124991737891
6.236618309154577,0.9833321819021
6.25032516258129,0.9891353501812074
6.264032016008003,0.9925551801639669
6.2777388694347165,0.9982636536760358
6.29144572286143,1.0038454362889877
6.305152576288143,1.0071966532616445
6.318859429714857,1.0107400913669051
6.3325662831415706,1.0152668501081692
6.346273136568284,1.0168035366286143
6.359979989994997,1.0177997570216144
6.37368684342171,1.0189293292410322
6.387393696848424,1.019492032744456
6.401100550275137,1.0186650041997771
6.41480740370185,1.0185540625317209
6.428514257128564,1.0156923923231655
6.442221110555277,1.0137329066360188
6.45592796398199,1.0122175474294275
6.4696348174087035,1.0104498317506636
6.483341670835417,1.0065016177655342
6.49704852426213,1.0032650501808886
6.510755377688843,1.002259764190984
6.524462231115558,1.0008635953807214
6.538169084542271,0.9990834746944199
6.551875937968984,0.996059700707067
6.5655827913956974,0.9952947672130288
6.579289644822411,0.9958049049742599
6.592996498249124,0.9951252181807471
6.606703351675837,0.9948163500333252
6.620410205102551,0.995508967259413
6.634117058529264,0.995297840043779
6.647823911955977,0.9968402058972543
6.6615307653826905,0.9975025468975511
6.675237618809404,0.9976672969078719
6.688944472236117,0.9976676234126264
6.70265132566283,0.9993024914298321
6.716358179089544,0.9969558545253311
6.730065032516258,0.9966551561418083
6.743771885942971,0.9964277157980516
6.7574787393696845,0.995402040175118
6.771185592796398,0.993718604155901
6.784892446223111,0.9927694974193075
6.798599299649824,0.9903618525099495
6.812306153076538,0.9890280799481385
6.826013006503251,0.9882730881356994
6.839719859929964,0.9882801693925528
6.8534267133566775,0.9884588468815693
6.867133566783391,0.9886052175145716
6.880840420210104,0.9887110935772526
6.894547273636817,0.98975937923466
6.908254127063531,0.991080474524622
6.921960980490245,0.9936628904807114
6.935667833916958,0.9975802240322802
6.9493746873436715,1.000492962725506
6.963081540770385,1.003311209232137
6.976788394197098,1.0068085086799379
6.990495247623811,1.010647851949175
7.004202101050525,1.014162920304925
7.017908954477238,1.0184825671523068
7.031615807903951,1.0197715664147466
7.0453226613306645,1.0234334552215412
7.059029514757378,1.025620888847289
7.072736368184091,1.0254953555885138
7.086443221610804,1.0249990872879677
7.100150075037518,1.0238633115065008
7.113856928464231,1.0216447344742645
7.127563781890945,1.0187506507320345
7.1412706353176585,1.013974261155174
7.154977488744372,1.010509457719243
7.168684342171085,1.0046111723411986
7.182391195597798,0.9996759165462689
7.196098049024512,0.9934278501258312
7.209804902451225,0.9884823707737573
7.223511755877938,0.9829935369068726
7.2372186093046516,0.9791216131587012
7.250925462731365,0.9746905583233231
7.264632316158078,0.9712948859072777
7.278339169584791,0.9690896671686158
7.292046023011505,0.9677203549913417
7.305752876438218,0.9676286900523652
7.319459729864932,0.9690860531837412
7.3331665832916455,0.9700357955547988
7.346873436718359,0.9746784814371648
