time,flux
0.0,1.0038327045446775
0.013706853426713355,1.0091147797582496
0.02741370685342671,1.0143996155984656
0.041120560280140064,1.0187632372766666
0.05482741370685342,1.0255192519552034
0.06853426713356678,1.0299803407444519
0.08224112056028013,1.0341615968539852
0.09594797398699349,1.0384630496520957
0.10965482741370684,1.0425193606605796
0.1233616808404202,1.0446892397803853
0.13706853426713356,1.0481922935801655
0.1507753876938469,1.0503330898568877
0.16448224112056026,1.050754965498354
0.1781890945472736,1.0497184792033953
0.19189594797398699,1.0481591289397838
0.20560280140070034,1.0471453466136313
0.21930965482741369,1.0438186926873556
0.23301650825412704,1.0407714851519152
0.2467233616808404,1.0375810273507649
0.26043021510755376,1.0334679161388645
0.2741370685342671,1.02937170805245
0.28784392196098046,1.0240334438446028
0.3015507753876938,1.0200198078805665
0.31525762881440716,1.0158954649372427
0.3289644822411205,1.0113006812981027
0.34267133566783387,1.0077270719683156
0.3563781890945472,1.0035834439082878
0.3700850425212606,1.0002895051140248
0.38379189594797397,0.9977477456201684
0.3974987493746873,0.9985345822427347
0.41120560280140067,0.9974630549683664
0.424912456228114,0.9993143313050249
0.43861930965482737,0.9990784939185853
0.4523261630815407,1.00093966037869
0.46603301650825407,1.0035589557932234
0.4797398699349674,1.0058684889176672
0.4934467233616808,1.011824417630515
0.5071535767883941,1.0152288024968972
0.5208604302151075,1.019181765055867
0.5345672836418208,1.0247768723572337
0.5482741370685342,1.0286376888701128
0.5619809904952475,1.0337963297346375
0.5756878439219609,1.0390638527902847
0.5893946973486743,1.0430638267864085
0.6031015507753876,1.046679353208236
0.616808404202101,1.0494285559760417
0.6305152576288143,1.0513889933107412
0.6442221110555277,1.0537190122647155
0.657928964482241,1.0532897850093976
0.6716358179089544,1.0539623627517025
0.6853426713356677,1.0545190141213494
0.6990495247623811,1.05067391929227
0.7127563781890944,1.0485615228221479
0.7264632316158078,1.044488093319567
0.7401700850425212,1.0410684268559516
0.7538769384692345,1.0361235759532041
0.7675837918959479,1.0313772187396975
0.7812906453226612,1.0263652241655792
0.7949974987493746,1.0213409072821227
0.8087043521760879,1.0158213434777381
0.8224112056028013,1.0108981893841453
0.8361180590295146,1.0052841088772952
0.849824912456228,1.0020461316852545
0.8635317658829413,0.9977853987276558
0.8772386193096547,0.9967531491080224
0.8909454727363681,0.9918209898127274
0.9046523261630814,0.9914709327025248
0.9183591795897948,0.9901108641587438
0.9320660330165081,0.9907249239338641
0.9457728864432215,0.991339016263485
0.9594797398699348,0.9937117264477471
0.9731865932966483,0.9933860635969446
0.9868934467233615,0.9981870073548483
1.000600300150075,1.0004593170870524
1.0143071535767882,1.005601210977091
1.0280140070035018,1.0093091790788253
1.041720860430215,1.0134836697372813
1.0554277138569284,1.0171359802710622
1.0691345672836416,1.022249763149669
1.0828414207103552,1.0254980432522616
1.0965482741370685,1.0305685704842182
1.1102551275637818,1.0328750677833864
1.123961980990495,1.0355606772763333
1.1376688344172086,1.0364560428529552
1.1513756878439219,1.0377079461834007
1.1650825412706352,1.037237591721349
1.1787893946973487,1.0368677143165377
1.192496248124062,1.0342543218414966
1.2062031015507753,1.0308002881150022
1.2199099549774886,1.0290743159497486
1.233616808404202,1.0239112014112832
1.2473236618309154,1.020324591922084
1.2610305152576287,1.015106312420726
1.274737368684342,1.0116495179575562
1.2884442221110555,1.006374083786908
1.3021510755377688,0.9984307922715923
1.315857928964482,0.9949194638163982
1.3295647823911956,0.98882127395635
1.3432716358179089,0.9833744620566756
1.3569784892446222,0.9789532157294552
1.3706853426713355,0.9752696604228867
1.384392196098049,0.9744309410052131
1.3980990495247623,0.9687863909599743
1.4118059029514756,0.9689764681835511
1.4255127563781889,0.9669686388908018
1.4392196098049024,0.9722815369832978
1.4529264632316157,0.9676126176699221
1.466633316658329,0.9700266698628043
1.4803401700850425,0.9726579419525376
1.4940470235117558,0.9746287378844294
1.507753876938469,0.9784352540715398
1.5214607303651824,0.9834332894695992
1.5351675837918959,0.9882734187968537
1.5488744372186092,0.9905288265199829
1.5625812906453225,0.9950221339526232
1.5762881440720358,0.9997667840676038
1.5899949974987493,1.0036244815818356
1.6037018509254626,1.0070117118769675
1.6174087043521759,1.009791938582789
1.6311155577788894,1.0116876918452915
1.6448224112056027,1.013821470079064
1.658529264632316,1.0132532693821434
1.6722361180590293,1.0131361749915773
1.6859429714857428,1.0133580998400675
1.699649824912456,1.0105279862748873
1.7133566783391694,1.0085342677799436
1.7270635317658827,1.0057230155880483
1.7407703851925962,1.000986969579126
1.7544772386193095,0.9976464991198902
1.7681840920460228,0.991292425132441
1.7818909454727363,0.9872741935687185
1.7955977988994496,0.980715069594624
1.8093046523261629,0.9769981536324306
1.8230115057528762,0.9723613433991467
1.8367183591795897,0.9656251185126546
1.850425212606303,0.9626158642781948
1.8641320660330163,0.9569451128399271
1.8778389194597296,0.9543305178220836
1.891545772886443,0.9512289725799797
1.9052526263131564,0.9504519583641762
1.9189594797398697,0.9485959567692547
1.9326663331665832,0.9484250872853583
1.9463731865932965,0.9482534621320052
1.9600800400200098,0.950414124413621
1.973786893446723,0.9533920827731461
1.9874937468734366,0.9556188465410062
2.00120060030015,0.9595393313846293
2.014907453726863,0.9626471880926947
2.0286143071535765,0.9680440808880441
2.04232116058029,0.9716472073074124
2.0560280140070035,0.9764093280743303
2.069734867433717,0.9808195601135639
2.08344172086043,0.9855646080207183
2.0971485742871434,0.9886163003160819
2.1108554277138567,0.9928935830557605
2.12456228114057,0.9969246430678301
2.1382691345672833,0.999446176963044
2.1519759879939966,1.000128909297585
2.1656828414207103,1.0028668502065077
2.1793896948474236,1.0005740731977453
2.193096548274137,1.0013501906692461
2.20680340170085,1.0007394645723409
2.2205102551275635,0.996478518877057
2.234217108554277,0.9950129828469647
2.24792396198099,0.9923510286626851
2.261630815407704,0.985361041388687
2.275337668834417,0.9836741572755874
2.2890445222611304,0.9794788296879082
2.3027513756878437,0.9739941254865726
2.316458229114557,0.9692053272083919
2.3301650825412703,0.9641950155697896
2.3438719359679836,0.9612363722703396
2.3575787893946973,0.9569621033473124
2.3712856428214106,0.9538425508401012
2.384992496248124,0.9502982182476826
2.3986993496748372,0.9481614245034291
2.4124062031015505,0.9475022423180227
2.426113056528264,0.9486253147744123
2.439819909954977,0.9488821495995252
2.4535267633816904,0.9496872087928943
2.467233616808404,0.949921472725743
2.4809404702351174,0.952752533127892
2.4946473236618307,0.9574853268305936
2.508354177088544,0.9609493495215922
2.5220610305152573,0.9675444384128473
2.5357678839419706,0.9729314813140048
2.549474737368684,0.9773876533087594
2.5631815907953976,0.9827038752219845
2.576888444222111,0.9880646604213084
2.5905952976488242,0.9924973423052369
2.6043021510755375,0.9969995130379468
2.618009004502251,1.0011513696930512
2.631715857928964,1.0052581120979354
2.6454227113556774,1.0080528559792534
2.659129564782391,1.0104863278085603
2.6728364182091044,1.0114877551004648
2.6865432716358177,1.012592857777454
2.700250125062531,1.0119522317998877
2.7139569784892443,1.0108273660500149
2.7276638319159576,1.0086071558545393
2.741370685342671,1.0070370850392925
2.755077538769384,1.004686310874894
2.768784392196098,1.000062848469747
2.7824912456228112,0.9965091132324118
2.7961980990495245,0.9916469189616945
2.809904952476238,0.9868359205495325
2.823611805902951,0.9839477553102464
2.8373186593296644,0.9797897384683761
2.8510255127563777,0.9757105262339201
2.8647323661830915,0.9721006551409558
2.8784392196098048,0.968104963520497
2.892146073036518,0.9657606359235174
2.9058529264632313,0.9658723522717612
2.9195597798899446,0.9656314149410432
2.933266633316658,0.9658018155571704
2.9469734867433712,0.9672269232862892
2.960680340170085,0.9693744753570206
2.9743871935967983,0.9715401327215879
2.9880940470235116,0.9750033914201005
3.001800900450225,0.9802943992658137
3.015507753876938,0.9849405243352432
3.0292146073036514,0.9885136626951271
3.0429214607303647,0.9945675163446507
3.056628314157078,1.0002509382734222
3.0703351675837918,1.0058631221474656
3.084042021010505,1.0110780936947887
3.0977488744372184,1.0155178802532228
3.1114557278639317,1.0206306716525675
3.125162581290645,1.0257586990302303
3.1388694347173582,1.0285533827131317
3.1525762881440715,1.0322598029140255
3.1662831415707853,1.0335271159773074
3.1799899949974986,1.0360084338557138
3.193696848424212,1.0350703754995354
3.207403701850925,1.0350088797047092
3.2211105552776385,1.0340510488649655
3.2348174087043517,1.0321953353237685
3.248524262131065,1.029834431544263
3.262231115557779,1.0263962354007627
3.275937968984492,1.021103940110139
3.2896448224112054,1.0188237329813876
3.3033516758379187,1.0145712217400211
3.317058529264632,1.009344086346249
3.3307653826913453,1.0050125623723116
3.3444722361180586,1.0022052237974628
3.358179089544772,0.9996185392547091
3.3718859429714856,0.9945307915853108
3.385592796398199,0.9929194996479414
3.399299649824912,0.990900990184294
3.4130065032516255,0.9897286273934565
3.4267133566783388,0.9889254906432866
3.440420210105052,0.9892598160327556
3.4541270635317654,0.9915760017931508
3.467833916958479,0.992413037513669
3.4815407703851924,0.9948749671457272
3.4952476238119057,0.998123659006823
3.508954477238619,1.0029173400772229
3.5226613306653323,1.006635477933107
3.5363681840920456,1.0128106917908697
3.550075037518759,1.0159746132349572
3.5637818909454726,1.0237778354462967
3.577488744372186,1.0277219252099135
3.591195597798899,1.0320572466755789
3.6049024512256125,1.0368793851504068
3.6186093046523258,1.0418713831506126
3.632316158079039,1.0451904178053286
3.6460230115057524,1.0485805961966843
3.659729864932466,1.0504788839305765
3.6734367183591794,1.0523749208093975
3.6871435717858927,1.0544337702659463
3.700850425212606,1.051848377755472
3.7145572786393193,1.051689590446564
3.7282641320660326,1.0506973467938627
3.741970985492746,1.0475339892718443
3.755677838919459,1.0447968789672821
3.769384692346173,1.0404132139192235
3.783091545772886,1.0366345932661585
3.7967983991995995,1.0321337699598212
3.810505252626313,1.027366941074818
3.824212106053026,1.021985493977433
3.8379189594797394,1.0176216163176146
3.8516258129064527,1.0133019838083341
3.8653326663331664,1.010258357045351
3.8790395197598797,1.0037068551598904
3.892746373186593,1.003244570408724
3.9064532266133063,1.0004064238007049
3.9201600800400196,0.9996357670802211
3.933866933466733,0.9979989472858504
3.947573786893446,0.9985731304285613
3.96128064032016,0.9984040903834287
3.974987493746873,1.0007667361659782
3.9886943471735865,1.0031971955030352
4.0024012006003,1.00538886795898
4.016108054027013,1.0097704063872994
4.029814907453726,1.0142214811781947
4.04352176088044,1.0169766522660941
4.057228614307153,1.0233388063217108
4.070935467733866,1.02694829229911
4.08464232116058,1.0317981050404865
4.098349174587293,1.0366864825926714
4.112056028014007,1.0399898113672452
4.12576288144072,1.044132907964783
4.139469734867434,1.0463651968648815
4.153176588294147,1.049612547924174
4.16688344172086,1.0510604645675894
4.1805902951475735,1.0506847421552266
4.194297148574287,1.0511336200156742
4.208004002001,1.0498667043986347
4.221710855427713,1.0497359876787349
4.235417708854427,1.0445382682069253
4.24912456228114,1.0420205093570836
4.262831415707853,1.0382148663459412
4.276538269134567,1.0354967355874232
4.29024512256128,1.0296910419518381
4.303951975987993,1.0236724244930864
4.317658829414707,1.0184925916663075
4.331365682841421,1.0129236170735052
4.345072536268134,1.0078142704355655
4.358779389694847,1.0025147689817795
4.3724862431215605,0.9974062468857893
4.386193096548274,0.9936065376113061
4.399899949974987,0.9922483482836564
4.4136068034017,0.9879774106162096
4.427313656828414,0.9881153889375354
4.441020510255127,0.9849604390518717
4.45472736368184,0.9855082749755417
4.468434217108554,0.9854401035777723
4.482141070535267,0.9874266457604334
4.49584792396198,0.9888690431275305
4.5095547773886935,0.9906815440607522
4.523261630815408,0.9946735896472556
4.536968484242121,0.9992441106073291
4.550675337668834,1.0027990608780297
4.5643821910955475,1.0070540864300463
4.578089044522261,1.0119512048781827
4.591795897948974,1.015368759124837
4.605502751375687,1.0200788154429608
4.619209604802401,1.0233517282608668
4.632916458229114,1.0261844742969537
4.646623311655827,1.0279887852093947
4.660330165082541,1.0304713797583671
4.674037018509254,1.030916038208906
4.687743871935967,1.0295218175411898
4.7014507253626805,1.0297205268381018
4.715157578789395,1.0288672122941225
4.728864432216108,1.0277005249121183
4.742571285642821,1.0227609359378207
4.756278139069535,1.0191094460027252
4.769984992496248,1.0143831387489628
4.783691845922961,1.0113364677329661
4.7973986993496744,1.0052099585862095
4.811105552776388,1.0012107995351298
4.824812406203101,0.9941167352573521
4.838519259629814,0.988840040153706
4.852226113056528,0.9829573785695145
4.865932966483241,0.9797782936161924
4.879639819909954,0.9728098997215159
4.8933466733366675,0.9702615700724742
4.907053526763381,0.9664283428657205
4.920760380190095,0.9640543075634305
4.934467233616808,0.9627241276780931
4.948174087043522,0.9628466060516104
4.961880940470235,0.961119163689593
4.975587793896948,0.9623132148016701
4.9892946473236615,0.9633850932244513
5.003001500750375,0.9652188533142008
5.016708354177088,0.9696561171152439
5.030415207603801,0.9736932098126839
5.044122061030515,0.9757428578111326
5.057828914457228,0.979376901210837
5.071535767883941,0.9844288217280396
5.0852426213106545,0.9887480510670211
5.098949474737368,0.992430454051192
5.112656328164081,0.9963477937905173
5.126363181590795,1.0005589519302511
5.140070035017509,1.002950393919943
5.153776888444222,1.0061178827640467
5.167483741870935,1.0074261395120028
5.1811905952976485,1.0093552745615741
5.194897448724362,1.0097893506554014
5.208604302151075,1.0070315011861133
5.222311155577788,1.0063606396332987
5.236018009004502,1.00416013507731
5.249724862431215,1.0002230221539359
5.263431715857928,0.998111470564211
5.2771385692846415,0.9933028125503233
5.290845422711355,0.9898412138088698
5.304552276138068,0.9829701221746193
5.318259129564782,0.9786206961062163
5.331965982991496,0.9730452939472369
5.345672836418209,0.9694744513166259
5.359379689844922,0.9637483326565518
5.3730865432716355,0.9601559080130512
5.386793396698349,0.9553554485050159
5.400500250125062,0.9523112072323182
5.414207103551775,0.9511699567298133
5.427913956978489,0.9476468464010389
5.441620810405202,0.9463845800072548
5.455327663831915,0.9457260977896748
5.4690345172586285,0.9455376367883069
5.482741370685342,0.9481514545905124
5.496448224112055,0.9508452537434177
5.510155077538768,0.9535074256921541
5.523861930965483,0.9573538091180605
5.537568784392196,0.9558789849767432
5.551275637818909,0.9652632897490129
5.5649824912456225,0.9702255117819081
5.578689344672336,0.9749004348254185
5.592396198099049,0.9790518062190403
5.606103051525762,0.9844413170953235
5.619809904952476,0.989459988516341
5.633516758379189,0.9936597962261432
5.647223611805902,0.9965410398147674
5.660930465232616,0.9995564068607015
5.674637318659329,1.0008017265171376
5.688344172086042,1.0031437702439971
5.7020510255127554,1.003323488252529
5.71575787893947,1.0023455295939314
5.729464732366183,1.001423165703052
5.743171585792896,0.9993175254992022
5.7568784392196095,0.99636138465268
5.770585292646323,0.9939044153381578
5.784292146073036,0.9908312893129745
5.797998999499749,0.9853872265703506
5.811705852926463,0.981596498066669
5.825412706353176,0.9762201740855511
5.839119559779889,0.9722063674482403
5.852826413206603,0.9679204451544627
5.866533266633316,0.963360034607894
5.880240120060029,0.959409888007998
5.8939469734867425,0.9569375401186936
5.907653826913456,0.9537136637953995
5.92136068034017,0.9517151730460209
5.935067533766883,0.9506770429745228
5.9487743871935965,0.9512882254492868
5.96248124062031,0.9519239150999618
5.976188094047023,0.9506294958875167
5.989894947473736,0.9542556770011287
6.00360180090045,0.9577418649146295
6.017308654327163,0.9612053279386306
6.031015507753876,0.9652151942430349
6.04472236118059,0.9701153028908808
6.058429214607303,0.9761357651349325
6.072136068034016,0.9816200281300698
6.0858429214607295,0.9856954977108744
6.099549774887443,0.9911673543781263
6.113256628314156,0.9969474529141309
6.12696348174087,1.0008628539199653
6.1406703351675835,1.0047396939935247
6.154377188594297,1.0089229058103706
6.16808404202101,1.013086223106497
6.181790895447723,1.015481007212508
6.195497748874437,1.0172667091704557
6.20920460230115,1.0184648403923606
6.222911455727863,1.017536550785476
6.236618309154577,1.0164594580574096
6.25032516258129,1.0143155789656473
6.264032016008003,1.0136914418773522
6.2777388694347165,1.009444533511193
6.29144572286143,1.0055101617358828
6.305152576288143,1.0032600926943906
6.318859429714857,0.9982609635962539
6.3325662831415706,0.994219630808103
6.346273136568284,0.9897814215708033
6.359979989994997,0.9870649093357566
6.37368684342171,0.9819307727039692
6.387393696848424,0.9794968562374422
6.401100550275137,0.9758206616309127
6.41480740370185,0.9741064221448187
6.428514257128564,0.972755830199188
6.442221110555277,0.9726680729053806
6.45592796398199,0.9720096578114005
6.4696348174087035,0.9726404421074056
6.483341670835417,0.9758052494975337
6.49704852426213,0.9775290782035455
6.510755377688843,0.9809422937710237
6.524462231115558,0.9852067390327611
6.538169084542271,0.9896295915821286
6.551875937968984,0.9942135798357328
6.5655827913956974,0.9994389801404113
6.579289644822411,1.0052118660430036
6.592996498249124,1.010745496289123
6.606703351675837,1.015286846817468
6.620410205102551,1.0216348022754407
6.634117058529264,1.0259464320202616
6.647823911955977,1.029478254507566
6.6615307653826905,1.0345056674179662
6.675237618809404,1.0368401163259624
6.688944472236117,1.0403712509517316
6.70265132566283,1.0418052680868537
6.716358179089544,1.0421622434253266
6.730065032516258,1.0413181365546123
6.743771885942971,1.0404765843273642
6.7574787393696845,1.0375445758227013
6.771185592796398,1.036057104537065
6.784892446223111,1.032910909686638
6.798599299649824,1.0270099235276569
6.812306153076538,1.0252209106389967
6.826013006503251,1.019788524272283
6.839719859929964,1.016603911014089
6.8534267133566775,1.011136046844323
6.867133566783391,1.0081884556714356
6.880840420210104,1.004102819297272
6.894547273636817,1.0010386658331056
6.908254127063531,0.9969555871720883
6.921960980490245,0.9950334689835468
6.935667833916958,0.9928516276475513
6.9493746873436715,0.9942167850445752
6.963081540770385,0.9930722687645483
6.976788394197098,0.9953773542596682
6.990495247623811,0.9950682835459705
7.004202101050525,0.998408831194783
7.017908954477238,1.0014451357488163
7.031615807903951,1.0050245438743035
7.0453226613306645,1.008936677759655
7.059029514757378,1.0151827248422047
7.072736368184091,1.0197150455619186
7.086443221610804,1.024554461650294
7.100150075037518,1.028845268256283
7.113856928464231,1.0338339563253844
7.127563781890945,1.0395111053628294
7.1412706353176585,1.0438112701341802
7.154977488744372,1.0469786265139993
7.168684342171085,1.049802782058575
7.182391195597798,1.0524731922087405
7.196098049024512,1.0547925386968275
7.209804902451225,1.0543725030640914
7.223511755877938,1.0546445972694793
7.2372186093046516,1.0546102739172536
7.250925462731365,1.0515198353278399
7.264632316158078,1.0487939746108892
7.278339169584791,1.0455072756926038
7.292046023011505,1.042169906771398
7.305752876438218,1.0378055875797267
7.319459729864932,1.0323419069760726
7.3331665832916455,1.0271885662591709
7.346873436718359,1.0236831585613098
