time,flux
0.0,0.9632599521562457
0.013706853426713355,0.9667444995001002
0.02741370685342671,0.9730284500740898
0.041120560280140064,0.9820012263067109
0.05482741370685342,0.9911197035266608
0.06853426713356678,1.000690823253948
0.08224112056028013,1.0101706013138148
0.09594797398699349,1.0194574628667084
0.10965482741370684,1.0272706250332577
0.1233616808404202,1.0336071149459958
0.13706853426713356,1.0378511307743927
0.1507753876938469,1.0398628121473827
0.16448224112056026,1.0387440779271095
0.1781890945472736,1.0358613871215545
0.19189594797398699,1.0297420872907024
0.20560280140070034,1.0207052207873162
0.21930965482741369,1.0112739550419185
0.23301650825412704,1.001433496230148
0.2467233616808404,0.9891357895186048
0.26043021510755376,0.9798982411926327
0.2741370685342671,0.971394606406435
0.28784392196098046,0.9633108407485068
0.3015507753876938,0.9575761851883289
0.31525762881440716,0.9551605181140951
0.3289644822411205,0.954501151304196
0.34267133566783387,0.9561475403366919
0.3563781890945472,0.9620268710071213
0.3700850425212606,0.9686293171122217
0.38379189594797397,0.9772489302904761
0.3974987493746873,0.9891272426396248
0.41120560280140067,0.9998771565088115
0.424912456228114,1.0118347895806141
0.43861930965482737,1.02283872464263
0.4523261630815407,1.032215189561745
0.46603301650825407,1.038995052963675
0.4797398699349674,1.0446233545781758
0.4934467233616808,1.0487861663530338
0.5071535767883941,1.048172354714723
0.5208604302151075,1.0456488463677487
0.5345672836418208,1.041360208193981
0.5482741370685342,1.0331190363211378
0.5619809904952475,1.022532493379763
0.5756878439219609,1.0117671851873358
0.5893946973486743,1.0002103516272072
0.6031015507753876,0.9892655648981651
0.616808404202101,0.9783104902012293
0.6305152576288143,0.9712149926623517
0.6442221110555277,0.9628015264885401
0.657928964482241,0.9571688358195232
0.6716358179089544,0.9574313247931354
0.6853426713356677,0.9571196982378807
0.6990495247623811,0.9593896979412961
0.7127563781890944,0.9649999408426967
0.7264632316158078,0.9733252543383809
0.7401700850425212,0.9838100868606725
0.7538769384692345,0.9937580107865226
0.7675837918959479,1.0046096967454938
0.7812906453226612,1.0147439964340115
0.7949974987493746,1.0245013109154633
0.8087043521760879,1.0326109842777111
0.8224112056028013,1.037811793960619
0.8361180590295146,1.0407865570682697
0.849824912456228,1.0405294892355281
0.8635317658829413,1.038429435981472
0.8772386193096547,1.0339730821684696
0.8909454727363681,1.0267463611537229
0.9046523261630814,1.0168583980116799
0.9183591795897948,1.0085891886494058
0.9320660330165081,0.9966661998646403
0.9457728864432215,0.9860067840004931
0.9594797398699348,0.9750485800606806
0.9731865932966483,0.9669916174983222
0.9868934467233615,0.9611080676531351
1.000600300150075,0.9553557287996405
1.0143071535767882,0.9555098644955077
1.0280140070035018,0.955896080006677
1.041720860430215,0.9618789885028362
1.0554277138569284,0.9679846905330627
1.0691345672836416,0.9755021211215158
1.0828414207103552,0.9854249289726261
1.0965482741370685,0.9988486404910096
1.1102551275637818,1.0105449781745859
1.123961980990495,1.021875952162225
1.1376688344172086,1.032380263146383
1.1513756878439219,1.0404045118991998
1.1650825412706352,1.0463389683850406
1.1787893946973487,1.0497916772211702
1.192496248124062,1.0504100297225885
1.2062031015507753,1.047876284926007
1.2199099549774886,1.0433274359355753
1.233616808404202,1.0345508949801905
1.2473236618309154,1.025267482915822
1.2610305152576287,1.0136020243205266
1.274737368684342,0.9997770780148585
1.2884442221110555,0.9894477393711572
1.3021510755377688,0.9769165884590897
1.315857928964482,0.9676717301745849
1.3295647823911956,0.959883891488023
1.3432716358179089,0.954816072899774
1.3569784892446222,0.9505004210537866
1.3706853426713355,0.949595556706642
1.384392196098049,0.9540474077007618
1.3980990495247623,0.9592414016150517
1.4118059029514756,0.9679583778699241
1.4255127563781889,0.9767547517134012
1.4392196098049024,0.9883132002304643
1.4529264632316157,1.0008162096163267
1.466633316658329,1.0117729593767546
1.4803401700850425,1.0211289380099426
1.4940470235117558,1.0306568000048315
1.507753876938469,1.036691824263018
1.5214607303651824,1.0420587500647835
1.5351675837918959,1.0433290754885713
1.5488744372186092,1.043051479131923
1.5625812906453225,1.0380273809311618
1.5762881440720358,1.0317999393960784
1.5899949974987493,1.0248453467669512
1.6037018509254626,1.013683303918431
1.6174087043521759,1.0024082729696397
1.6311155577788894,0.9919926021347544
1.6448224112056027,0.9815497574585512
1.658529264632316,0.9731241484027084
1.6722361180590293,0.9654604718685166
1.6859429714857428,0.9597854790787608
1.699649824912456,0.9582994454950415
1.7133566783391694,0.9581972831997095
1.7270635317658827,0.9616698002608413
1.7407703851925962,0.9671203396657139
1.7544772386193095,0.9752422579086022
1.7681840920460228,0.9843892275336255
1.7818909454727363,0.9960802685441047
1.7955977988994496,1.0064330311640939
1.8093046523261629,1.0181528099410777
1.8230115057528762,1.028077148284278
1.8367183591795897,1.0375231371086318
1.850425212606303,1.0420724271166677
1.8641320660330163,1.0472410263325966
1.8778389194597296,1.0467252955135093
1.891545772886443,1.046224223198
1.9052526263131564,1.0414263842373026
1.9189594797398697,1.033700002566222
1.9326663331665832,1.0234739563820658
1.9463731865932965,1.0118400904599858
1.9600800400200098,1.0010482512348362
1.973786893446723,0.9893953705438745
1.9874937468734366,0.9781613229220708
2.00120060030015,0.9671220068880708
2.014907453726863,0.9595202005856034
2.0286143071535765,0.9542743326500238
2.04232116058029,0.9505339582060228
2.0560280140070035,0.9497682210343794
2.069734867433717,0.9522543675504597
2.08344172086043,0.958665086663039
2.0971485742871434,0.9650132561003729
2.1108554277138567,0.9748651436732031
2.12456228114057,0.9859005804625696
2.1382691345672833,0.9981294595569435
2.1519759879939966,1.0100582403922704
2.1656828414207103,1.02068476681878
2.1793896948474236,1.0285046959013728
2.193096548274137,1.0363085639943972
2.20680340170085,1.0427387790494216
2.2205102551275635,1.045820754592738
2.234217108554277,1.0446156595705558
2.24792396198099,1.0423398318732817
2.261630815407704,1.0351627204118188
2.275337668834417,1.0281786249405331
2.2890445222611304,1.019494919135342
2.3027513756878437,1.0091138489837663
2.316458229114557,0.9987976803209959
2.3301650825412703,0.9884810098445798
2.3438719359679836,0.976986094988518
2.3575787893946973,0.9714207840227983
2.3712856428214106,0.9650689132383067
2.384992496248124,0.9604425634768979
2.3986993496748372,0.9595210206332663
2.4124062031015505,0.9629525615209384
2.426113056528264,0.966164804235674
2.439819909954977,0.9722435812955422
2.4535267633816904,0.9812583232199257
2.467233616808404,0.9905217320141166
2.4809404702351174,1.0007235766415106
2.4946473236618307,1.0110561164073777
2.508354177088544,1.0206971429435336
2.5220610305152573,1.028613211101206
2.5357678839419706,1.0362417799578543
2.549474737368684,1.0395031770086332
2.5631815907953976,1.0409116659993884
2.576888444222111,1.0414447955771375
2.5905952976488242,1.0356134576912206
2.6043021510755375,1.0304408535403915
2.618009004502251,1.022479715682045
2.631715857928964,1.0120048426164627
2.6454227113556774,1.0012454616319912
2.659129564782391,0.9915549150931151
2.6728364182091044,0.9817472496578193
2.6865432716358177,0.9708311546055556
2.700250125062531,0.9640130511351558
2.7139569784892443,0.9566771887025818
2.7276638319159576,0.9551868264554062
2.741370685342671,0.9548661835324505
2.755077538769384,0.9554860077584268
2.768784392196098,0.962096078714037
2.7824912456228112,0.967893651734647
2.7961980990495245,0.9768242252184586
2.809904952476238,0.9868265808202706
2.823611805902951,0.9961264500951282
2.8373186593296644,1.0094835059633367
2.8510255127563777,1.0194136314887634
2.8647323661830915,1.0270228033475206
2.8784392196098048,1.0359638415018044
2.892146073036518,1.0422681343355948
2.9058529264632313,1.044022637253674
2.9195597798899446,1.0448824290339533
2.933266633316658,1.042307260822016
2.9469734867433712,1.0385985420505794
2.960680340170085,1.0321236431229055
2.9743871935967983,1.0233465327335636
2.9880940470235116,1.011924606009625
3.001800900450225,1.001997991738312
3.015507753876938,0.9934865195144696
3.0292146073036514,0.9826343787747395
3.0429214607303647,0.9742104165952832
3.056628314157078,0.9683446731054857
3.0703351675837918,0.9640432135926557
3.084042021010505,0.9626333501355517
3.0977488744372184,0.9631817138159154
3.1114557278639317,0.9651151220984979
3.125162581290645,0.9692642390676631
3.1388694347173582,0.977487656674436
3.1525762881440715,0.9858829417003896
3.1662831415707853,0.9928547958115763
3.1799899949974986,1.0037472353716381
3.193696848424212,1.0126392588069082
3.207403701850925,1.021520212215916
3.2211105552776385,1.0283661616983775
3.2348174087043517,1.0305074521874376
3.248524262131065,1.0338214544478843
3.262231115557779,1.035139328458586
3.275937968984492,1.0321003956456756
3.2896448224112054,1.026960133899566
3.3033516758379187,1.0220487029142022
3.317058529264632,1.0139372112419889
3.3307653826913453,1.0050470010167665
3.3444722361180586,0.9967543864885525
3.358179089544772,0.9873646322183471
3.3718859429714856,0.9783161021181622
3.385592796398199,0.9720208516611489
3.399299649824912,0.9669384984428293
3.4130065032516255,0.9628432750491127
3.4267133566783388,0.9609825959885849
3.440420210105052,0.9631243619548931
3.4541270635317654,0.9673385215273774
3.467833916958479,0.972489270009422
3.4815407703851924,0.9800835496509299
3.4952476238119057,0.9876009419906827
3.508954477238619,0.9969292114559528
3.5226613306653323,1.0076412332228097
3.5363681840920456,1.017176874791
3.550075037518759,1.024552193395895
3.5637818909454726,1.03151947087024
3.577488744372186,1.0373744820259043
3.591195597798899,1.0399599015531336
3.6049024512256125,1.0406403166743308
3.6186093046523258,1.0392064420211273
3.632316158079039,1.0347984234681422
3.6460230115057524,1.0299965047088997
3.659729864932466,1.0218395750420974
3.6734367183591794,1.0132021104623057
3.6871435717858927,1.0043165599064645
3.700850425212606,0.9949905606776953
3.7145572786393193,0.9863287753114679
3.7282641320660326,0.9764470958934948
3.741970985492746,0.9710181217284796
3.755677838919459,0.9661261490339608
3.769384692346173,0.9650372157416435
3.783091545772886,0.964043365313651
3.7967983991995995,0.9655012549329148
3.810505252626313,0.9701246277431358
3.824212106053026,0.9747216983163318
3.8379189594797394,0.9808250019730808
3.8516258129064527,0.9878403970047576
3.8653326663331664,0.9988960524353429
3.8790395197598797,1.0057986377792223
3.892746373186593,1.0136750691742813
3.9064532266133063,1.019414772458587
3.9201600800400196,1.0239369692272269
3.933866933466733,1.0282833531578186
3.947573786893446,1.028812031603383
3.96128064032016,1.0273614805817768
3.974987493746873,1.0258331983210722
3.9886943471735865,1.0204783061555485
4.0024012006003,1.0151781256654726
4.016108054027013,1.0091705120270698
4.029814907453726,1.002253882922566
4.04352176088044,0.9938053937199869
4.057228614307153,0.9874380114759826
4.070935467733866,0.9823413134062653
4.08464232116058,0.9773056995405922
4.098349174587293,0.9732457336719885
4.112056028014007,0.9722905759869807
4.12576288144072,0.9715082027556369
4.139469734867434,0.9745755698407287
4.153176588294147,0.9784497672139221
4.16688344172086,0.9848446507359016
4.1805902951475735,0.9904960168552508
4.194297148574287,0.9963344948179118
4.208004002001,1.004872736315412
4.221710855427713,1.0114286733440845
4.235417708854427,1.0177492582241938
4.24912456228114,1.0247719989252875
4.262831415707853,1.0283399661869825
4.276538269134567,1.030738650073584
4.29024512256128,1.0326068979885032
4.303951975987993,1.0334574543540485
4.317658829414707,1.0287428544601231
4.331365682841421,1.024583513778387
4.345072536268134,1.0194522738761864
4.358779389694847,1.0116893574114858
4.3724862431215605,1.004585963581503
4.386193096548274,0.9959239718395905
4.399899949974987,0.9882849887983146
4.4136068034017,0.981775337491914
4.427313656828414,0.976199584434483
4.441020510255127,0.9728940878217339
4.45472736368184,0.9692360791407969
4.468434217108554,0.9692101313282729
4.482141070535267,0.9685138011282872
4.49584792396198,0.9721915667230769
4.5095547773886935,0.976361652766571
4.523261630815408,0.981476973571455
4.536968484242121,0.9878643748993323
4.550675337668834,0.9939029478787675
4.5643821910955475,1.0009530211316544
4.578089044522261,1.0071008609759797
4.591795897948974,1.013250982143781
4.605502751375687,1.0184078698298962
4.619209604802401,1.0207362050473416
4.632916458229114,1.0238009722765022
4.646623311655827,1.02505127373235
4.660330165082541,1.0245734503480088
4.674037018509254,1.0223261453772956
4.687743871935967,1.0173922247437792
4.7014507253626805,1.0141016144291157
4.715157578789395,1.0089521056712514
4.728864432216108,1.0033252244761282
4.742571285642821,0.99679501967729
4.756278139069535,0.9917410167730367
4.769984992496248,0.9878010228288069
4.783691845922961,0.9841169359190951
4.7973986993496744,0.9837172910365494
4.811105552776388,0.9817938450337502
4.824812406203101,0.9817029847375428
4.838519259629814,0.9838300047698899
4.852226113056528,0.9862119889521848
4.865932966483241,0.9908464007996355
4.879639819909954,0.9945456506321241
4.8933466733366675,1.001010991787123
4.907053526763381,1.005436292306571
4.920760380190095,1.0095600742559103
4.934467233616808,1.0126895123665933
4.948174087043522,1.016522395559875
4.961880940470235,1.0186197191843838
4.975587793896948,1.0198689862141155
4.9892946473236615,1.0204317088939496
5.003001500750375,1.0197755262065704
5.016708354177088,1.016662198421787
5.030415207603801,1.0126430565949744
5.044122061030515,1.00874089837183
5.057828914457228,1.0021538930569678
5.071535767883941,0.9974202998368845
5.0852426213106545,0.9920965638932618
5.098949474737368,0.98685322717574
5.112656328164081,0.9836225766209535
5.126363181590795,0.9785970174536759
5.140070035017509,0.9791027800667675
5.153776888444222,0.9763917610356151
5.167483741870935,0.9775141469168817
5.1811905952976485,0.9792668272290133
5.194897448724362,0.9800727094663161
5.208604302151075,0.984590438346857
5.222311155577788,0.9877435312468823
5.236018009004502,0.9928291182781135
5.249724862431215,0.997566754588428
5.263431715857928,1.0037319604392905
5.2771385692846415,1.0084693996547165
5.290845422711355,1.0127959364496664
5.304552276138068,1.0159717962207606
5.318259129564782,1.0174723831287655
5.331965982991496,1.019100593610425
5.345672836418209,1.0203796802270704
5.359379689844922,1.0194980530610087
5.3730865432716355,1.0180457334575599
5.386793396698349,1.0152774465956853
5.400500250125062,1.012182487363373
5.414207103551775,1.0087197980441023
5.427913956978489,1.0047843168026345
5.441620810405202,0.9974083187510271
5.455327663831915,0.9965001954686017
5.4690345172586285,0.9928759331825635
5.482741370685342,0.9906310640407183
5.496448224112055,0.9888237421962197
5.510155077538768,0.9866374153954947
5.523861930965483,0.9874916010325316
5.537568784392196,0.9892573745211444
5.551275637818909,0.9897386896502095
5.5649824912456225,0.9910459980941407
5.578689344672336,0.9945251103206957
5.592396198099049,0.9962677346122317
5.606103051525762,0.9994339600799741
5.619809904952476,1.0012973790562265
5.633516758379189,1.0034323202688795
5.647223611805902,1.0073164820767952
5.660930465232616,1.0080391399185293
5.674637318659329,1.0086663780799456
5.688344172086042,1.0098199466454734
5.7020510255127554,1.0079256699244712
5.71575787893947,1.006862321714281
5.729464732366183,1.0067700873357357
5.743171585792896,1.004038289297336
5.7568784392196095,0.9998397984763138
5.770585292646323,0.9984768031147166
5.784292146073036,0.9954241172957015
5.797998999499749,0.9928798692945066
5.811705852926463,0.991712893010034
5.825412706353176,0.990209098448877
5.839119559779889,0.9887136717258094
5.852826413206603,0.9868050547798802
5.866533266633316,0.9879814607785428
5.880240120060029,0.9885658229751523
5.8939469734867425,0.9896509213238112
5.907653826913456,0.9912108041652422
5.92136068034017,0.9936072987506476
5.935067533766883,0.9968572063073872
5.9487743871935965,1.0004448960169057
5.96248124062031,1.0031876491608447
5.976188094047023,1.0058808445007998
5.989894947473736,1.008003267206591
6.00360180090045,1.010097114296031
6.017308654327163,1.0131481827222175
6.031015507753876,1.013300606099765
6.04472236118059,1.01448662933462
6.058429214607303,1.0138810192214833
6.072136068034016,1.013206298577149
6.0858429214607295,1.0124112095872237
6.099549774887443,1.0102209671391673
6.113256628314156,1.0085939790834546
6.12696348174087,1.0055352628522451
6.1406703351675835,1.0023763765451077
6.154377188594297,1.0015253341977643
6.16808404202101,0.9985838469762066
6.181790895447723,0.9964554085192022
6.195497748874437,0.9933669994348464
6.20920460230115,0.9919997494147933
6.222911455727863,0.9895721500382775
6.236618309154577,0.9898727537539123
6.25032516258129,0.9892669574587191
6.264032016008003,0.9890008480113572
6.2777388694347165,0.9883664169111779
6.29144572286143,0.9888281164819308
6.305152576288143,0.9906968129665837
6.318859429714857,0.9927122422941982
6.3325662831415706,0.9935772356121456
6.346273136568284,0.9959829279803316
6.359979989994997,0.9979217270117904
6.37368684342171,0.9999201753777847
6.387393696848424,1.0002981708248204
6.401100550275137,1.0034007731458126
6.41480740370185,1.0055895427818655
6.428514257128564,1.0059628240542002
6.442221110555277,1.0063919485993724
6.45592796398199,1.0059773031877615
6.4696348174087035,1.0054962449591953
6.483341670835417,1.0046849255625594
6.49704852426213,1.004360466144736
6.510755377688843,1.0045662152729424
6.524462231115558,1.001130342162226
6.538169084542271,1.0010177273921563
6.551875937968984,0.9985255576824946
6.5655827913956974,0.998507326421733
6.579289644822411,0.9965490157084738
6.592996498249124,0.9961584748472525
6.606703351675837,0.9941969131460082
6.620410205102551,0.9965800377235428
6.634117058529264,0.9969168841912761
6.647823911955977,0.9969893114744167
6.6615307653826905,0.9980384133247509
6.675237618809404,0.998580397351129
6.688944472236117,1.0009131830652072
6.70265132566283,1.0009078099640847
6.716358179089544,1.0049628008082427
6.730065032516258,1.0050286484050213
6.743771885942971,1.0067325667420126
6.7574787393696845,1.0079363561094605
6.771185592796398,1.0100912418503498
6.784892446223111,1.0100523959978973
6.798599299649824,1.0098830577947877
6.812306153076538,1.0099772149824782
6.826013006503251,1.0083990975895212
6.839719859929964,1.00692512434667
6.8534267133566775,1.0053115324990372
6.867133566783391,1.0027376739899203
6.880840420210104,0.9993560662335362
6.894547273636817,0.996333406228772
6.908254127063531,0.9941268017307088
6.921960980490245,0.9915817684991016
6.935667833916958,0.9883855260380138
6.9493746873436715,0.9863192144087918
6.963081540770385,0.984889084743585
6.976788394197098,0.982550496696119
6.990495247623811,0.9831892675552041
7.004202101050525,0.9851050917591647
7.017908954477238,0.9845459851162469
7.031615807903951,0.9872484459206305
7.0453226613306645,0.9905255041250081
7.059029514757378,0.9930700708257078
7.072736368184091,0.9968038639756012
7.086443221610804,0.9999230392452202
7.100150075037518,1.005345410828642
7.113856928464231,1.0084785714396922
7.127563781890945,1.0111947356495061
7.1412706353176585,1.0128159412586861
7.154977488744372,1.0169098702087427
7.168684342171085,1.017191687911023
7.182391195597798,1.0175383703054923
7.196098049024512,1.0158396601113675
7.209804902451225,1.0157585288771587
7.223511755877938,1.0118463900913057
7.2372186093046516,1.0096540160299483
7.250925462731365,1.0047563820561158
7.264632316158078,1.0022203843107518
7.278339169584791,0.9994185880042301
7.292046023011505,0.9961304739948822
7.305752876438218,0.9917462396641319
7.319459729864932,0.9894580377673204
7.3331665832916455,0.9867307391036857
7.346873436718359,0.9880227263987329
