time,flux
0.0,0.9956121293479041
0.013706853426713355,0.9929618883318548
0.02741370685342671,0.987427360963653
0.041120560280140064,0.9839785653203345
0.05482741370685342,0.9801829137530323
0.06853426713356678,0.977880109779942
0.08224112056028013,0.9758124370609268
0.09594797398699349,0.9758677792805137
0.10965482741370684,0.9779939859845067
0.1233616808404202,0.9810392261620727
0.13706853426713356,0.9838493483959951
0.1507753876938469,0.9898345786381075
0.16448224112056026,0.9956796784794271
0.1781890945472736,1.0059510361432764
0.19189594797398699,1.0135964705901308
0.20560280140070034,1.0221613865708814
0.21930965482741369,1.031303688750375
0.23301650825412704,1.039095662243266
0.2467233616808404,1.0449120057892767
0.26043021510755376,1.0513639789033722
0.2741370685342671,1.0534162548454526
0.28784392196098046,1.0537524105865472
0.3015507753876938,1.051634729844591
0.31525762881440716,1.0503326258033703
0.3289644822411205,1.0444425827320671
0.34267133566783387,1.0371234330465477
0.3563781890945472,1.029898507159072
0.3700850425212606,1.0190173460167522
0.38379189594797397,1.0099780230299158
0.3974987493746873,0.9978740528169391
0.41120560280140067,0.9884234050528607
0.424912456228114,0.9780972820755683
0.43861930965482737,0.9684862022726606
0.4523261630815407,0.9619434102699261
0.46603301650825407,0.9588689224424297
0.4797398699349674,0.9573662468311935
0.4934467233616808,0.9555292623667883
0.5071535767883941,0.9551986288040493
0.5208604302151075,0.9598316963270197
0.5345672836418208,0.9641916491316074
0.5482741370685342,0.9690793794471804
0.5619809904952475,0.9740565453549083
0.5756878439219609,0.9804177794728343
0.5893946973486743,0.9888845738917731
0.6031015507753876,0.9935180203913316
0.616808404202101,1.000582556586441
0.6305152576288143,1.0046987761939676
0.6442221110555277,1.0066697003862268
0.657928964482241,1.0061322613684378
0.6716358179089544,1.0060042085104965
0.6853426713356677,1.0070300653968631
0.6990495247623811,1.0034999079805995
0.7127563781890944,1.002569425171336
0.7264632316158078,0.9988743356845522
0.7401700850425212,0.995840987776761
0.7538769384692345,0.993138748792532
0.7675837918959479,0.9903183577025152
0.7812906453226612,0.9854644759004882
0.7949974987493746,0.9858817379649578
0.8087043521760879,0.9868006405366828
0.8224112056028013,0.9881024679049728
0.8361180590295146,0.9904211844879747
0.849824912456228,0.9941483232126426
0.8635317658829413,1.0007607704043608
0.8772386193096547,1.0077760641680182
0.8909454727363681,1.0171723022585974
0.9046523261630814,1.0245000201119427
0.9183591795897948,1.0292266016635312
0.9320660330165081,1.0382526658793878
0.9457728864432215,1.042251009726306
0.9594797398699348,1.0459775732943133
0.9731865932966483,1.0469338061626892
0.9868934467233615,1.04897728210057
1.000600300150075,1.0452750836722275
1.0143071535767882,1.0447076047450967
1.0280140070035018,1.0367338913227633
1.041720860430215,1.0313103686378036
1.0554277138569284,1.021912043126467
1.0691345672836416,1.011596948940153
1.0828414207103552,1.0008566718382295
1.0965482741370685,0.9898048336924322
1.1102551275637818,0.9797461644645535
1.123961980990495,0.9724399549316358
1.1376688344172086,0.9624656343805756
1.1513756878439219,0.955677729950807
1.1650825412706352,0.9523793468179218
1.1787893946973487,0.9471518768759759
1.192496248124062,0.9492767168819748
1.2062031015507753,0.9492175456241316
1.2199099549774886,0.9541682467841126
1.233616808404202,0.9583468782457985
1.2473236618309154,0.9650971920554715
1.2610305152576287,0.9736573573754124
1.274737368684342,0.9826267577617216
1.2884442221110555,0.9886619662881763
1.3021510755377688,0.9936365461383355
1.315857928964482,1.0030406068425262
1.3295647823911956,1.0103185010643894
1.3432716358179089,1.0128971980177799
1.3569784892446222,1.0164572238944618
1.3706853426713355,1.0160058580821096
1.384392196098049,1.0155808623708427
1.3980990495247623,1.0162041679317142
1.4118059029514756,1.012019170315105
1.4255127563781889,1.0087732544516306
1.4392196098049024,1.0069022435577506
1.4529264632316157,1.0018738449803888
1.466633316658329,0.9999080921925138
1.4803401700850425,0.9977080550867639
1.4940470235117558,0.9945137836973943
1.507753876938469,0.990569844869432
1.5214607303651824,0.9924996945078827
1.5351675837918959,0.9950253812688687
1.5488744372186092,0.9989547387094398
1.5625812906453225,1.0059076754462377
1.5762881440720358,1.0087815755844896
1.5899949974987493,1.0150446809016185
1.6037018509254626,1.0215603096259647
1.6174087043521759,1.0283344899271003
1.6311155577788894,1.0316377260315237
1.6448224112056027,1.035589049289161
1.658529264632316,1.0398073119188713
1.6722361180590293,1.0412242563004201
1.6859429714857428,1.0415170892071282
1.699649824912456,1.039685579184112
1.7133566783391694,1.0353261152621995
1.7270635317658827,1.0297229804285073
1.7407703851925962,1.0227561365304243
1.7544772386193095,1.0123744499955074
1.7681840920460228,1.0023083078265773
1.7818909454727363,0.9951097990041151
1.7955977988994496,0.9849972592417918
1.8093046523261629,0.973480927315854
1.8230115057528762,0.964855826038277
1.8367183591795897,0.9554290770448651
1.850425212606303,0.9525968516208612
1.8641320660330163,0.9442603445851483
1.8778389194597296,0.9466610361892573
1.891545772886443,0.9441240751391025
1.9052526263131564,0.9481292673655829
1.9189594797398697,0.9510615729947365
1.9326663331665832,0.9566986035276692
1.9463731865932965,0.96692590847027
1.9600800400200098,0.9754844393713284
1.973786893446723,0.9842113081662912
1.9874937468734366,0.9915170715483398
2.00120060030015,1.0010443559155393
2.014907453726863,1.0095715776816878
2.0286143071535765,1.0143920845810466
2.04232116058029,1.0200428355400397
2.0560280140070035,1.02250290586925
2.069734867433717,1.0267846463158075
2.08344172086043,1.0255595775216235
2.0971485742871434,1.0277195577975375
2.1108554277138567,1.0260158148177672
2.12456228114057,1.0185175061770297
2.1382691345672833,1.0142844163750666
2.1519759879939966,1.0122622103949237
2.1656828414207103,1.0062273410041263
2.1793896948474236,1.0039406795661188
2.193096548274137,1.000064468469716
2.20680340170085,0.9992866748368615
2.2205102551275635,0.9977472089261863
2.234217108554277,0.9963837653193095
2.24792396198099,0.9982230533518017
2.261630815407704,1.0019874722343358
2.275337668834417,1.004228808026285
2.2890445222611304,1.010211319427666
2.3027513756878437,1.0156726799924922
2.316458229114557,1.022171972124493
2.3301650825412703,1.0228267290467423
2.3438719359679836,1.0281596591993871
2.3575787893946973,1.030171556939152
2.3712856428214106,1.0334876298341125
2.384992496248124,1.0302758041005182
2.3986993496748372,1.0316421892567786
2.4124062031015505,1.026550112607445
2.426113056528264,1.0215394043161972
2.439819909954977,1.013465203425193
2.4535267633816904,1.0061934998050712
2.467233616808404,0.9965117911332289
2.4809404702351174,0.988122438786291
2.4946473236618307,0.9763146412213826
2.508354177088544,0.9667518286611256
2.5220610305152573,0.9606219880195249
2.5357678839419706,0.9531687988741661
2.549474737368684,0.9472893637033081
2.5631815907953976,0.9454076540597028
2.576888444222111,0.9416524806976787
2.5905952976488242,0.9458687797513436
2.6043021510755375,0.9495783412010268
2.618009004502251,0.9536168993290512
2.631715857928964,0.9604325648501868
2.6454227113556774,0.9681476052015411
2.659129564782391,0.9786781364608679
2.6728364182091044,0.9882068574004066
2.6865432716358177,0.9989930958321049
2.700250125062531,1.0070784971756679
2.7139569784892443,1.0159619705859217
2.7276638319159576,1.0245545075251314
2.741370685342671,1.0319566303313559
2.755077538769384,1.0334932529294345
2.768784392196098,1.0371316487779059
2.7824912456228112,1.0391679843617925
2.7961980990495245,1.0362362984609124
2.809904952476238,1.0318035098876992
2.823611805902951,1.030874683011273
2.8373186593296644,1.0252314790520523
2.8510255127563777,1.0166345800108056
2.8647323661830915,1.0118727731913475
2.8784392196098048,1.008590991410652
2.892146073036518,1.0034404716720875
2.9058529264632313,0.9999823511444714
2.9195597798899446,0.9973988193126929
2.933266633316658,0.9949654856580984
2.9469734867433712,0.9950969508091038
2.960680340170085,0.9943850252829869
2.9743871935967983,1.0000268867906539
2.9880940470235116,1.0032904005761474
3.001800900450225,1.0054746755473187
3.015507753876938,1.0119104163632913
3.0292146073036514,1.0156420341136512
3.0429214607303647,1.0322556461144143
3.056628314157078,1.0215023957052505
3.0703351675837918,1.020657092357178
3.084042021010505,1.0243761456299647
3.0977488744372184,1.0239468475549454
3.1114557278639317,1.017833462864624
3.125162581290645,1.016010964355911
3.1388694347173582,1.0069878385451523
3.1525762881440715,0.9987842356407253
3.1662831415707853,0.9937193839937234
3.1799899949974986,0.9832484984344204
3.193696848424212,0.9720431307365841
3.207403701850925,0.9655635623524476
3.2211105552776385,0.9576497572592346
3.2348174087043517,0.9517525731194739
3.248524262131065,0.9480674049903683
3.262231115557779,0.9451505943158376
3.275937968984492,0.9472358401156703
3.2896448224112054,0.9467210923387986
3.3033516758379187,0.9509461365236568
3.317058529264632,0.95907428174867
3.3307653826913453,0.9632538689022704
3.3444722361180586,0.9751642879309381
3.358179089544772,0.9825245585914786
3.3718859429714856,0.9951209347317671
3.385592796398199,1.0078121755558915
3.399299649824912,1.016807454499265
3.4130065032516255,1.023797443110775
3.4267133566783388,1.0322448944482996
3.440420210105052,1.0405003866790652
3.4541270635317654,1.0420122874642481
3.467833916958479,1.046608233868156
3.4815407703851924,1.047516587231795
3.4952476238119057,1.0443032623964499
3.508954477238619,1.0414795768021987
3.5226613306653323,1.0364392047065216
3.5363681840920456,1.0299690489817581
3.550075037518759,1.023960506552728
3.5637818909454726,1.0163455444989076
3.577488744372186,1.0087830497134722
3.591195597798899,1.0041750719926201
3.6049024512256125,0.9975713880182461
3.6186093046523258,0.9926040801360716
3.632316158079039,0.9897852163022569
3.6460230115057524,0.9886351849738818
3.659729864932466,0.9907616176615609
3.6734367183591794,0.9933174666258758
3.6871435717858927,0.9954588884464216
3.700850425212606,0.99597194756163
3.7145572786393193,1.0014177293154454
3.7282641320660326,1.0065630340854543
3.741970985492746,1.0089835248844836
3.755677838919459,1.0117370646731396
3.769384692346173,1.012775508068708
3.783091545772886,1.0137797611358916
3.7967983991995995,1.0133250725854857
3.810505252626313,1.0124120158561398
3.824212106053026,1.008881731173427
3.8379189594797394,1.0035678327837858
3.8516258129064527,0.9963516955971023
3.8653326663331664,0.9894373279672234
3.8790395197598797,0.9826837244316914
3.892746373186593,0.9743766217467466
3.9064532266133063,0.9653125899727879
3.9201600800400196,0.9605146793304375
3.933866933466733,0.9559614161645253
3.947573786893446,0.9548715458011423
3.96128064032016,0.9519746981386669
3.974987493746873,0.9517422064854252
3.9886943471735865,0.9548927356262717
4.0024012006003,0.9574320617090472
4.016108054027013,0.9632337591843992
4.029814907453726,0.9714836668694934
4.04352176088044,0.9814763849735598
4.057228614307153,0.9920452193184484
4.070935467733866,1.0025457947716374
4.08464232116058,1.0137547633660169
4.098349174587293,1.0251456716597767
4.112056028014007,1.0327484994028768
4.12576288144072,1.0410477845528092
4.139469734867434,1.0485532121629593
4.153176588294147,1.0504817423780215
4.16688344172086,1.0508759414847046
4.1805902951475735,1.0521250070623052
4.194297148574287,1.049784479045663
4.208004002001,1.0450364378690133
4.221710855427713,1.038876447084293
4.235417708854427,1.0332341582538787
4.24912456228114,1.024943114650354
4.262831415707853,1.016536295010939
4.276538269134567,1.007946053794116
4.29024512256128,1.0003091664345818
4.303951975987993,0.9912571621591166
4.317658829414707,0.990408975302506
4.331365682841421,0.9837459882942485
4.345072536268134,0.9825320005039845
4.358779389694847,0.9804862238744085
4.3724862431215605,0.9830854852822896
4.386193096548274,0.9828693966759595
4.399899949974987,0.9873021808689678
4.4136068034017,0.9900414957715521
4.427313656828414,0.9922530260692426
4.441020510255127,0.9966646448778173
4.45472736368184,1.0018810137013376
4.468434217108554,1.0045391289494912
4.482141070535267,1.007300232133204
4.49584792396198,1.007671052417114
4.5095547773886935,1.0074316670222736
4.523261630815408,1.0049773751685467
4.536968484242121,1.0008704911357738
4.550675337668834,0.994720068878308
4.5643821910955475,0.98738264363396
4.578089044522261,0.9852180653614723
4.591795897948974,0.9765038355737757
4.605502751375687,0.9720608165738938
4.619209604802401,0.9664155352419204
4.632916458229114,0.9610165126498826
4.646623311655827,0.9601181730100673
4.660330165082541,0.9592120292579175
4.674037018509254,0.9598487796651208
4.687743871935967,0.958475898389956
4.7014507253626805,0.964434990598135
4.715157578789395,0.9703646390522556
4.728864432216108,0.980562161482896
4.742571285642821,0.9901969125875141
4.756278139069535,0.9994668252981149
4.769984992496248,1.0103033598826912
4.783691845922961,1.0230325689422546
4.7973986993496744,1.0307279871601744
4.811105552776388,1.0364185026978554
4.824812406203101,1.0486365845929333
4.838519259629814,1.0528816795540792
4.852226113056528,1.0571195747759734
4.865932966483241,1.0574456478048155
4.879639819909954,1.056111691714805
4.8933466733366675,1.0529609599042271
4.907053526763381,1.0464077102218445
4.920760380190095,1.042299693170445
4.934467233616808,1.030135729451074
4.948174087043522,1.0221694008653415
4.961880940470235,1.0123332185858145
4.975587793896948,1.0019672579178303
4.9892946473236615,0.9956372765925818
5.003001500750375,0.9870359754590659
5.016708354177088,0.9796084836800851
5.030415207603801,0.9761860469995521
5.044122061030515,0.9724819224879464
5.057828914457228,0.969743014566624
5.071535767883941,0.9705653491906697
5.0852426213106545,0.9721909445151564
5.098949474737368,0.9731928063019981
5.112656328164081,0.9790438525796835
5.126363181590795,0.9825148602824577
5.140070035017509,0.9917518387146894
5.153776888444222,0.9926866229472094
5.167483741870935,1.0009558069420612
5.1811905952976485,1.0007173679292893
5.194897448724362,1.0051336762760876
5.208604302151075,1.0065847746927088
5.222311155577788,1.0025903625172048
5.236018009004502,1.0004688585353319
5.249724862431215,0.9986830914222685
5.263431715857928,0.9929077375293178
5.2771385692846415,0.9911531969267754
5.290845422711355,0.9836715842259363
5.304552276138068,0.9779480589303874
5.318259129564782,0.9740033777364284
5.331965982991496,0.9717364508583743
5.345672836418209,0.9689993449616783
5.359379689844922,0.9670410691030291
5.3730865432716355,0.9673791475207807
5.386793396698349,0.9719646432789224
5.400500250125062,0.9739220229875061
5.414207103551775,0.9793261474761096
5.427913956978489,0.9883519922025922
5.441620810405202,0.9966618761994991
5.455327663831915,1.007406604905687
5.4690345172586285,1.0154796923624612
5.482741370685342,1.027123606946505
5.496448224112055,1.0370580302334846
5.510155077538768,1.0425716019003373
5.523861930965483,1.0515899712848324
5.537568784392196,1.0541217458990138
5.551275637818909,1.057440597416821
5.5649824912456225,1.059177671251164
5.578689344672336,1.0561029360332106
5.592396198099049,1.0495849040680394
5.606103051525762,1.0432659227414984
5.619809904952476,1.0351544253743679
5.633516758379189,1.0283442229618078
5.647223611805902,1.01949778883858
5.660930465232616,1.0059877957480823
5.674637318659329,0.9974549927074242
5.688344172086042,0.9862192483247547
5.7020510255127554,0.9768893939284157
5.71575787893947,0.9723489807970731
5.729464732366183,0.9671884417638907
5.743171585792896,0.9627073556756823
5.7568784392196095,0.95838123065058
5.770585292646323,0.9620198398993445
5.784292146073036,0.9628958472507623
5.797998999499749,0.9651846315143661
5.811705852926463,0.9721860685663996
5.825412706353176,0.9783330170226792
5.839119559779889,0.9810637651957531
5.852826413206603,0.9891182252086441
5.866533266633316,0.9933815475235549
5.880240120060029,0.998956833413966
5.8939469734867425,1.0027083267322374
5.907653826913456,1.0031117451554683
5.92136068034017,1.0040532795272614
5.935067533766883,1.0068389710024024
5.9487743871935965,1.0032444751470757
5.96248124062031,1.002361103309074
5.976188094047023,0.9982823397620513
5.989894947473736,0.9933602695645619
6.00360180090045,0.9874735479024757
6.017308654327163,0.9844107350274233
6.031015507753876,0.9808378895165472
6.04472236118059,0.9777795760810706
6.058429214607303,0.9765841726948326
6.072136068034016,0.9785830999798635
6.0858429214607295,0.9795330038824553
6.099549774887443,0.9794855189287689
6.113256628314156,0.9864477192797734
6.12696348174087,0.9943387266848818
6.1406703351675835,1.0025709744735134
6.154377188594297,1.0082017261791907
6.16808404202101,1.0201836433207847
6.181790895447723,1.0298096592629582
6.195497748874437,1.0358005729851405
6.20920460230115,1.0418584866176919
6.222911455727863,1.045282095517557
6.236618309154577,1.0527055939819145
6.25032516258129,1.0539150733320113
6.264032016008003,1.0546937141718113
6.2777388694347165,1.0519346661562181
6.29144572286143,1.048052098129202
6.305152576288143,1.0420631775766667
6.318859429714857,1.0314747358853584
6.3325662831415706,1.0221716213178067
6.346273136568284,1.0093969683596367
6.359979989994997,1.0001476676107406
6.37368684342171,0.989753138077686
6.387393696848424,0.980426225911817
6.401100550275137,0.9707629589976099
6.41480740370185,0.9618606698737028
6.428514257128564,0.9559961392701021
6.442221110555277,0.9502210719998161
6.45592796398199,0.9521025065515187
6.4696348174087035,0.9530889771297865
6.483341670835417,0.9557214663948046
6.49704852426213,0.9565428643177365
6.510755377688843,0.9627440435123802
6.524462231115558,0.9708287062766995
6.538169084542271,0.9765556251475855
6.551875937968984,0.9838094033867809
6.5655827913956974,0.9930311734901123
6.579289644822411,0.9988877736235822
6.592996498249124,1.0043521558927682
6.606703351675837,1.0097766442470177
6.620410205102551,1.0127660621074932
6.634117058529264,1.0126737144103217
6.647823911955977,1.0123936498709936
6.6615307653826905,1.0109927787124797
6.675237618809404,1.0059391748788888
6.688944472236117,1.0035737636362387
6.70265132566283,0.997935359646965
6.716358179089544,0.9929600124498889
6.730065032516258,0.9912798359070359
6.743771885942971,0.989228968232944
6.7574787393696845,0.9859675391425388
6.771185592796398,0.9862686933935493
6.784892446223111,0.9884697390628959
6.798599299649824,0.9902285268439063
6.812306153076538,0.991995842882184
6.826013006503251,0.9987606123624359
6.839719859929964,1.0044494862112159
6.8534267133566775,1.0119615316241803
6.867133566783391,1.0212919462295498
6.880840420210104,1.0269560405876184
6.894547273636817,1.0356233571866127
6.908254127063531,1.0419360632890733
6.921960980490245,1.047018327214427
6.935667833916958,1.051130384825258
6.9493746873436715,1.0514316184075179
6.963081540770385,1.048290813885318
6.976788394197098,1.0457382340019274
6.990495247623811,1.0421176884586303
7.004202101050525,1.0319845983524352
7.017908954477238,1.0236859696080256
7.031615807903951,1.0155160762874547
7.0453226613306645,1.0050256516670655
7.059029514757378,0.9920597101512378
7.072736368184091,0.9823751116866336
7.086443221610804,0.9737062419601641
7.100150075037518,0.9623848043554125
7.113856928464231,0.9542016139931482
7.127563781890945,0.9514547278379848
7.1412706353176585,0.9460136633518115
7.154977488744372,0.9450522276052888
7.168684342171085,0.9467360532888506
7.182391195597798,0.9493927769620386
7.196098049024512,0.9561285362627873
7.209804902451225,0.9628329830333697
7.223511755877938,0.9674483400464116
7.2372186093046516,0.9788262416873214
7.250925462731365,0.9874108686377616
7.264632316158078,0.993742921565029
7.278339169584791,1.0025150636382212
7.292046023011505,1.0103362700092327
7.305752876438218,1.0168215012347774
7.319459729864932,1.0163087439988736
7.3331665832916455,1.0206900227972204
