time,flux
0.0,1.0017167040703416
0.013706853426713355,1.0035207593324822
0.02741370685342671,1.0056677697412728
0.041120560280140064,1.00680790916782
0.05482741370685342,1.0095106818321067
0.06853426713356678,1.011359102481155
0.08224112056028013,1.0144472942178513
0.09594797398699349,1.016075612672838
0.10965482741370684,1.0176737500281479
0.1233616808404202,1.0185521667970554
0.13706853426713356,1.020630957479029
0.1507753876938469,1.0209664767145568
0.16448224112056026,1.0205143634864844
0.1781890945472736,1.022502288142187
0.19189594797398699,1.0216385761300764
0.20560280140070034,1.0197869548250809
0.21930965482741369,1.0179544681903823
0.23301650825412704,1.0169847251421187
0.2467233616808404,1.0142034772040818
0.26043021510755376,1.0119620128673519
0.2741370685342671,1.0085265505656589
0.28784392196098046,1.00519325314993
0.3015507753876938,1.0009805242356147
0.31525762881440716,0.9987931086483384
0.3289644822411205,0.9947334028387556
0.34267133566783387,0.9906741253757014
0.3563781890945472,0.9857649219781371
0.3700850425212606,0.9821781383691621
0.38379189594797397,0.9793352721107442
0.3974987493746873,0.9756008906312792
0.41120560280140067,0.9738781408071453
0.424912456228114,0.9712072823505141
0.43861930965482737,0.9683102562336838
0.4523261630815407,0.9674575756210053
0.46603301650825407,0.9653966079446404
0.4797398699349674,0.9658231354908844
0.4934467233616808,0.9652662598214078
0.5071535767883941,0.9655500782778847
0.5208604302151075,0.966341788012623
0.5345672836418208,0.967824325847438
0.5482741370685342,0.9694873262408743
0.5619809904952475,0.9717904101574295
0.5756878439219609,0.9734027576404888
0.5893946973486743,0.9758280018149574
0.6031015507753876,0.9788530881701829
0.616808404202101,0.9803945111829887
0.6305152576288143,0.9831363931345127
0.6442221110555277,0.9854838904782538
0.657928964482241,0.988411806836889
0.6716358179089544,0.9906393713766658
0.6853426713356677,0.9922611458529619
0.6990495247623811,0.9943231946298199
0.7127563781890944,0.9957326387390076
0.7264632316158078,0.9966395246352493
0.7401700850425212,0.9974554110429363
0.7538769384692345,0.9966920744682455
0.7675837918959479,0.9960382078389133
0.7812906453226612,0.9962032475378744
0.7949974987493746,0.9961001370301711
0.8087043521760879,0.9945906604359794
0.8224112056028013,0.991794152335483
0.8361180590295146,0.9905529758279246
0.849824912456228,0.9876584678677487
0.8635317658829413,0.9852029340675214
0.8772386193096547,0.9833245140965441
0.8909454727363681,0.9805335429222997
0.9046523261630814,0.975419060604258
0.9183591795897948,0.9748266491004454
0.9320660330165081,0.9724373343906305
0.9457728864432215,0.968982114682133
0.9594797398699348,0.9680992178315204
0.9731865932966483,0.966170931545478
0.9868934467233615,0.965058247513074
1.000600300150075,0.964165558263524
1.0143071535767882,0.9646156603154602
1.0280140070035018,0.9646593066414205
1.041720860430215,0.964146612188274
1.0554277138569284,0.9659782658350236
1.0691345672836416,0.9685163960664552
1.0828414207103552,0.9688863233096773
1.0965482741370685,0.9714574803073754
1.1102551275637818,0.9750764587863072
1.123961980990495,0.9785326997621931
1.1376688344172086,0.9816996771856148
1.1513756878439219,0.9842737571917799
1.1650825412706352,0.9887826708777345
1.1787893946973487,0.9925694585903584
1.192496248124062,0.9965237866363698
1.2062031015507753,0.9996583071683831
1.2199099549774886,1.0036751243020616
1.233616808404202,1.006839608163858
1.2473236618309154,1.010268623955994
1.2610305152576287,1.0127124097122309
1.274737368684342,1.0141481590847456
1.2884442221110555,1.0168918405877523
1.3021510755377688,1.0179751290069148
1.315857928964482,1.0188782781331975
1.3295647823911956,1.0191840163033454
1.3432716358179089,1.0192858039115094
1.3569784892446222,1.0183698744465093
1.3706853426713355,1.0186546345203753
1.384392196098049,1.0176997415686588
1.3980990495247623,1.0159119315023768
1.4118059029514756,1.014955280767208
1.4255127563781889,1.0129942631680435
1.4392196098049024,1.0100540003519995
1.4529264632316157,1.0078544661247573
1.466633316658329,1.0058215403024722
1.4803401700850425,1.0043578823585
1.4940470235117558,1.0020349823640522
1.507753876938469,0.9998411181598382
1.5214607303651824,0.9984636813407402
1.5351675837918959,0.9967326971543758
1.5488744372186092,0.9968895902857308
1.5625812906453225,0.9956564676303008
1.5762881440720358,0.995881712303345
1.5899949974987493,0.9943221307063846
1.6037018509254626,0.9968448194314622
1.6174087043521759,0.9979446098217628
1.6311155577788894,0.9993273119515991
1.6448224112056027,1.0012766359932803
1.658529264632316,1.003528183636996
1.6722361180590293,1.0061270128061865
1.6859429714857428,1.008875872356169
1.699649824912456,1.0126464407539633
1.7133566783391694,1.0151216586132272
1.7270635317658827,1.018209557022703
1.7407703851925962,1.0219321759455242
1.7544772386193095,1.0240887547374662
1.7681840920460228,1.0283740507881511
1.7818909454727363,1.0316030930177624
1.7955977988994496,1.0341138360881217
1.8093046523261629,1.0360332243818111
1.8230115057528762,1.038008637034772
1.8367183591795897,1.0385478870683138
1.850425212606303,1.039882566864884
1.8641320660330163,1.0408102775500934
1.8778389194597296,1.0404609007770342
1.891545772886443,1.0411924824246117
1.9052526263131564,1.0397715614619807
1.9189594797398697,1.038133667870409
1.9326663331665832,1.0371688501688558
1.9463731865932965,1.034534465401011
1.9600800400200098,1.0317845838580504
1.973786893446723,1.029709644678407
1.9874937468734366,1.0273877558500024
2.00120060030015,1.023639369923413
2.014907453726863,1.0201021824778937
2.0286143071535765,1.016992362847461
2.04232116058029,1.0137875115605148
2.0560280140070035,1.0114299795290531
2.069734867433717,1.0071379109879706
2.08344172086043,1.0048406559834986
2.0971485742871434,1.002523930024801
2.1108554277138567,1.0001208441134004
2.12456228114057,0.9983068174181577
2.1382691345672833,0.9970909606773807
2.1519759879939966,0.9953993704725175
2.1656828414207103,0.995571325509403
2.1793896948474236,0.9957360206724659
2.193096548274137,0.9967282971393094
2.20680340170085,0.9971210577641499
2.2205102551275635,0.9980950338714654
2.234217108554277,0.9999625394457416
2.24792396198099,1.001304947826083
2.261630815407704,1.0033517028137036
2.275337668834417,1.0052759218808969
2.2890445222611304,1.0078062139330923
2.3027513756878437,1.0096989576859043
2.316458229114557,1.0121165769002691
2.3301650825412703,1.0134481577835446
2.3438719359679836,1.0153549431217628
2.3575787893946973,1.016809058892759
2.3712856428214106,1.0186491201287422
2.384992496248124,1.019340960233136
2.3986993496748372,1.0204387907120507
2.4124062031015505,1.0193955116466875
2.426113056528264,1.0191099390597655
2.439819909954977,1.019640163731656
2.4535267633816904,1.017846657341944
2.467233616808404,1.0159640175788398
2.4809404702351174,1.013345035515694
2.4946473236618307,1.0115626258904493
2.508354177088544,1.008641035336972
2.5220610305152573,1.0050615769604614
2.5357678839419706,1.002368112182156
2.549474737368684,0.9986996991868744
2.5631815907953976,0.9942189256239312
2.576888444222111,0.991787693069188
2.5905952976488242,0.9867344612803514
2.6043021510755375,0.9833011995522444
2.618009004502251,0.979372529403513
2.631715857928964,0.9762377466970895
2.6454227113556774,0.9739132548440257
2.659129564782391,0.9713340067060214
2.6728364182091044,0.9690065240579316
2.6865432716358177,0.9675028287304145
2.700250125062531,0.9641856515722588
2.7139569784892443,0.9644983444505323
2.7276638319159576,0.9641985804727032
2.741370685342671,0.9648989982849145
2.755077538769384,0.9657177011346565
2.768784392196098,0.9660442981043613
2.7824912456228112,0.9680636742741215
2.7961980990495245,0.9697224171521615
2.809904952476238,0.9712290420918037
2.823611805902951,0.9744871497223069
2.8373186593296644,0.97617292734404
2.8510255127563777,0.9793931780171725
2.8647323661830915,0.9818306662189836
2.8784392196098048,0.9844075343072632
2.892146073036518,0.987470335312119
2.9058529264632313,0.9895346284947684
2.9195597798899446,0.9907477000478563
2.933266633316658,0.993149945225626
2.9469734867433712,0.9952249081017669
2.960680340170085,0.9959946882792153
2.9743871935967983,0.9970897722609171
2.9880940470235116,0.998084343153031
3.001800900450225,0.9971220428585325
3.015507753876938,0.9966694925981066
3.0292146073036514,0.9953188109600378
3.0429214607303647,0.9948503010594629
3.056628314157078,0.9942524716013152
3.0703351675837918,0.9912697818394248
3.084042021010505,0.9895287626227176
3.0977488744372184,0.9873291564552966
3.1114557278639317,0.9852369363526603
3.125162581290645,0.9815928655531608
3.1388694347173582,0.9783468849807253
3.1525762881440715,0.9773941284312768
3.1662831415707853,0.9739536499614448
3.1799899949974986,0.9714594030861416
3.193696848424212,0.9692679502537258
3.207403701850925,0.9675527525283265
3.2211105552776385,0.9658246780960272
3.2348174087043517,0.9658713335764361
3.248524262131065,0.9644859312097358
3.262231115557779,0.9653895880054179
3.275937968984492,0.9651278489909488
3.2896448224112054,0.9666806814778555
3.3033516758379187,0.9675142434137294
3.317058529264632,0.9698156745983538
3.3307653826913453,0.9721485939040525
3.3444722361180586,0.9755463766001248
3.358179089544772,0.9776153417864598
3.3718859429714856,0.9812408084007163
3.385592796398199,0.9844272469118738
3.399299649824912,0.9871905525797806
3.4130065032516255,0.9920097163764707
3.4267133566783388,0.9954203028815132
3.440420210105052,0.9993434864245256
3.4541270635317654,1.0021768802812339
3.467833916958479,1.0074381354264546
3.4815407703851924,1.0084186366167336
3.4952476238119057,1.0115510901271605
3.508954477238619,1.0147757772409622
3.5226613306653323,1.0175251397522989
3.5363681840920456,1.0182688053013258
3.550075037518759,1.0192624363768774
3.5637818909454726,1.0202557693365946
3.577488744372186,1.0208266071417182
3.591195597798899,1.0201366493090198
3.6049024512256125,1.0198460359821495
3.6186093046523258,1.019022857324258
3.632316158079039,1.0185268534375314
3.6460230115057524,1.0154744992892764
3.659729864932466,1.0138851549387093
3.6734367183591794,1.0127143088536141
3.6871435717858927,1.011194311626656
3.700850425212606,1.0083061727609697
3.7145572786393193,1.005732337276482
3.7282641320660326,1.003758004996572
3.741970985492746,1.0007462550954633
3.755677838919459,0.9997814375692263
3.769384692346173,0.9983361393615252
3.783091545772886,0.9974887787248284
3.7967983991995995,0.9965250260006544
3.810505252626313,0.9964221959424373
3.824212106053026,0.9961500306683188
3.8379189594797394,0.9970267047576458
3.8516258129064527,0.9976431397147203
3.8653326663331664,1.0000804135747017
3.8790395197598797,1.0000745506654825
3.892746373186593,1.0023959326500294
3.9064532266133063,1.0059325870998652
3.9201600800400196,1.0088245217261393
3.933866933466733,1.0114430147223352
3.947573786893446,1.0154109190035114
3.96128064032016,1.0171895972759633
3.974987493746873,1.0206109120777227
3.9886943471735865,1.0239384764814847
4.0024012006003,1.0273773915687678
4.016108054027013,1.0301217020012228
4.029814907453726,1.0327755878627947
4.04352176088044,1.0347447975783906
4.057228614307153,1.0380454249207673
4.070935467733866,1.039502141217519
4.08464232116058,1.0407722901806544
4.098349174587293,1.0407894747547364
4.112056028014007,1.0416932223272293
4.12576288144072,1.0421744731422495
4.139469734867434,1.0413203043791373
4.153176588294147,1.039869551782761
4.16688344172086,1.0383968176170746
4.1805902951475735,1.0357648269494766
4.194297148574287,1.0339972308971408
4.208004002001,1.030334392714195
4.221710855427713,1.0283867432834186
4.235417708854427,1.0246963379642826
4.24912456228114,1.0215273538106033
4.262831415707853,1.0192864166908489
4.276538269134567,1.0145179854508772
4.29024512256128,1.011591523101555
4.303951975987993,1.0083003268356598
4.317658829414707,1.0050955692084889
4.331365682841421,1.0022740091610638
4.345072536268134,1.000599853278326
4.358779389694847,0.9982674986753379
4.3724862431215605,0.9970833495964945
4.386193096548274,0.9958223117485482
4.399899949974987,0.9954351916569419
4.4136068034017,0.9954154734010772
4.427313656828414,0.9956144277734708
4.441020510255127,0.9966358230860843
4.45472736368184,0.9967993589543055
4.468434217108554,0.9986291442069757
4.482141070535267,0.999375460729627
4.49584792396198,1.0015786216620892
4.5095547773886935,1.0028350413326304
4.523261630815408,1.0052362611369008
4.536968484242121,1.0074947669590346
4.550675337668834,1.0090605721599843
4.5643821910955475,1.0118474229573176
4.578089044522261,1.0145552409118308
4.591795897948974,1.0152325837749003
4.605502751375687,1.0170585948258193
4.619209604802401,1.0181305145543518
4.632916458229114,1.0185832883838117
4.646623311655827,1.0185389890446608
4.660330165082541,1.0184056337762541
4.674037018509254,1.0173295202525263
4.687743871935967,1.0159839983963261
4.7014507253626805,1.0158240607009252
4.715157578789395,1.012905423563827
4.728864432216108,1.0104497285202272
4.742571285642821,1.0083747014040003
4.756278139069535,1.0055057036062909
4.769984992496248,1.0013732542385774
4.783691845922961,0.9983028574474306
4.7973986993496744,0.9947814083006374
4.811105552776388,0.9905156106747247
4.824812406203101,0.9868149694590586
4.838519259629814,0.9837841940705435
4.852226113056528,0.9804125035980589
4.865932966483241,0.9757697256336368
4.879639819909954,0.9736928549983765
4.8933466733366675,0.9709471105228348
4.907053526763381,0.968471012466141
4.920760380190095,0.96753674266119
4.934467233616808,0.9646032151638485
4.948174087043522,0.9648429838709072
4.961880940470235,0.9631557783536218
4.975587793896948,0.9637961676726118
4.9892946473236615,0.9636476403349187
5.003001500750375,0.9652319614910679
5.016708354177088,0.9659507536562214
5.030415207603801,0.9671750604324749
5.044122061030515,0.9696114277678167
5.057828914457228,0.9715241665474629
5.071535767883941,0.9746057340242584
5.0852426213106545,0.9774159428753254
5.098949474737368,0.9802597410022544
5.112656328164081,0.9826378993087764
5.126363181590795,0.9845228333457001
5.140070035017509,0.9879835340901453
5.153776888444222,0.9907058458524063
5.167483741870935,0.9928025548264381
5.1811905952976485,0.9931669659956325
5.194897448724362,0.995320078676439
5.208604302151075,0.9970271964486785
5.222311155577788,0.9971921062846456
5.236018009004502,0.9971679705112664
5.249724862431215,0.9965455793031308
5.263431715857928,0.9964604704127172
5.2771385692846415,0.9956353886683073
5.290845422711355,0.994563205743278
5.304552276138068,0.9925863586788042
5.318259129564782,0.9904733177750794
5.331965982991496,0.9876887138153003
5.345672836418209,0.9852167788443459
5.359379689844922,0.9834514649661333
5.3730865432716355,0.9807182624121943
5.386793396698349,0.978075950172108
5.400500250125062,0.975995413664057
5.414207103551775,0.9724364748802278
5.427913956978489,0.9712714711806331
5.441620810405202,0.9696308751061747
5.455327663831915,0.9681088697180809
5.4690345172586285,0.9665532527865911
5.482741370685342,0.9664595160003858
5.496448224112055,0.9649705707327053
5.510155077538768,0.967068873530001
5.523861930965483,0.9670912770843214
5.537568784392196,0.9684772467162409
5.551275637818909,0.9688598148972551
5.5649824912456225,0.9713942546231227
5.578689344672336,0.9748825677077657
5.592396198099049,0.9769718653824512
5.606103051525762,0.9806668265348245
5.619809904952476,0.9844081896476572
5.633516758379189,0.9881237147815295
5.647223611805902,0.9916688579738759
5.660930465232616,0.995159511746646
5.674637318659329,0.9973259384988311
5.688344172086042,1.00213364255127
5.7020510255127554,1.0057096226220272
5.71575787893947,1.0084038535264732
5.729464732366183,1.010994921415985
5.743171585792896,1.015104941567592
5.7568784392196095,1.0176268620795652
5.770585292646323,1.0188236030937488
5.784292146073036,1.0204657154092969
5.797998999499749,1.020463138261697
5.811705852926463,1.0218665309286328
5.825412706353176,1.0219460735903911
5.839119559779889,1.0208603248441153
5.852826413206603,1.0208338489317794
5.866533266633316,1.019901625818503
5.880240120060029,1.0181768940997082
5.8939469734867425,1.0163540601535708
5.907653826913456,1.0150414364994353
5.92136068034017,1.0118668087622602
5.935067533766883,1.010333074229031
5.9487743871935965,1.0080196738188696
5.96248124062031,1.00648626807553
5.976188094047023,1.0039774155599626
5.989894947473736,1.0015354327579535
6.00360180090045,1.0004894492944312
6.017308654327163,0.9989035591619411
6.031015507753876,0.9982719489436653
6.04472236118059,0.9968120637243445
6.058429214607303,0.9971435378981626
6.072136068034016,0.99778684495387
6.0858429214607295,0.9982846410886366
6.099549774887443,0.998549056512268
6.113256628314156,1.0011587978449894
6.12696348174087,1.00292878846176
6.1406703351675835,1.00421903002718
6.154377188594297,1.0069029456547431
6.16808404202101,1.0099624675135555
6.181790895447723,1.0131070693442175
6.195497748874437,1.0171997954267393
6.20920460230115,1.018759224222578
6.222911455727863,1.023286435159096
6.236618309154577,1.0263257953251341
6.25032516258129,1.0287195659168702
6.264032016008003,1.0328479277618827
6.2777388694347165,1.0341822697891645
6.29144572286143,1.036652513205679
6.305152576288143,1.0371711072003151
6.318859429714857,1.039345812784297
6.3325662831415706,1.040516677084515
6.346273136568284,1.0409946624646165
6.359979989994997,1.0413114215576276
6.37368684342171,1.0411017020775302
6.387393696848424,1.0397198288841443
6.401100550275137,1.0374173771884052
6.41480740370185,1.0360893327647542
6.428514257128564,1.0335234581650379
6.442221110555277,1.031259988919421
6.45592796398199,1.0285227617044475
6.4696348174087035,1.0271508895379888
6.483341670835417,1.0218963927297466
6.49704852426213,1.0187600475200052
6.510755377688843,1.015910255355
6.524462231115558,1.012074505879134
6.538169084542271,1.0092233317341561
6.551875937968984,1.0059483410715084
6.5655827913956974,1.0031003863663643
6.579289644822411,1.0004089203504787
6.592996498249124,0.9984078242414851
6.606703351675837,0.9965130988635941
6.620410205102551,0.9946873239545889
6.634117058529264,0.9939549768304993
6.647823911955977,0.9936271103711322
6.6615307653826905,0.9939551111163158
6.675237618809404,0.9939951735695295
6.688944472236117,0.9952438823380743
6.70265132566283,0.9958576686437893
6.716358179089544,0.9972414808557023
6.730065032516258,0.9990459037339426
6.743771885942971,1.0009397433034248
6.7574787393696845,1.0035627686128046
6.771185592796398,1.0051350052839334
6.784892446223111,1.0072856198935787
6.798599299649824,1.0096548716979052
6.812306153076538,1.0114023045607385
6.826013006503251,1.013130363951211
6.839719859929964,1.0152442585516448
6.8534267133566775,1.0159113096064525
6.867133566783391,1.016675931901927
6.880840420210104,1.0182050166553407
6.894547273636817,1.017795228663299
6.908254127063531,1.0168284299564316
6.921960980490245,1.0170802003043184
6.935667833916958,1.014604261632395
6.9493746873436715,1.0131801032300376
6.963081540770385,1.0110418078716459
6.976788394197098,1.0086813589971786
6.990495247623811,1.0064812486626582
7.004202101050525,1.0027196837848082
7.017908954477238,0.9990246999885107
7.031615807903951,0.9947678592119512
7.0453226613306645,0.9910826185263579
7.059029514757378,0.988355330244489
7.072736368184091,0.9845187976866606
7.086443221610804,0.9809011147335986
7.100150075037518,0.9781480369795342
7.113856928464231,0.9736302524374728
7.127563781890945,0.9707384639399848
7.1412706353176585,0.9692678702024178
7.154977488744372,0.9671165287365506
7.168684342171085,0.965085026073473
7.182391195597798,0.9641233494795525
7.196098049024512,0.9634848889496592
7.209804902451225,0.9632677423794558
7.223511755877938,0.9628511410823711
7.2372186093046516,0.9634217487666377
7.250925462731365,0.9651431314227154
7.264632316158078,0.9658779602383
7.278339169584791,0.9694590747471262
7.292046023011505,0.9710349915813485
7.305752876438218,0.9727133935038118
7.319459729864932,0.9760192181122536
7.3331665832916455,0.981794221803902
7.346873436718359,0.9808093233361123
