time,flux
0.0,0.9909417209308001
0.013706853426713355,0.9975938655957277
0.02741370685342671,1.0029419166969076
0.041120560280140064,1.0085719345250188
0.05482741370685342,1.0136461283143414
0.06853426713356678,1.0181275092123618
0.08224112056028013,1.022420924779404
0.09594797398699349,1.0272930434816647
0.10965482741370684,1.0269418802568195
0.1233616808404202,1.027585988212767
0.13706853426713356,1.0283267731797108
0.1507753876938469,1.0261878569855765
0.16448224112056026,1.0242406289555324
0.1781890945472736,1.0192128936148257
0.19189594797398699,1.0185752212803991
0.20560280140070034,1.0117712920168804
0.21930965482741369,1.0059247602210104
0.23301650825412704,1.0010330861630008
0.2467233616808404,0.9970314346667561
0.26043021510755376,0.9916586612137567
0.2741370685342671,0.9849598448498929
0.28784392196098046,0.9805592052637184
0.3015507753876938,0.9781328032858784
0.31525762881440716,0.974182446860996
0.3289644822411205,0.9699112538922632
0.34267133566783387,0.9715847360681119
0.3563781890945472,0.9717075753958118
0.3700850425212606,0.972052546275281
0.38379189594797397,0.9763704578220406
0.3974987493746873,0.9787730933886132
0.41120560280140067,0.9842912968341793
0.424912456228114,0.9889963608131247
0.43861930965482737,0.9932818950797966
0.4523261630815407,0.9988378113117514
0.46603301650825407,1.0060891145558795
0.4797398699349674,1.0106483001445257
0.4934467233616808,1.0147405056471883
0.5071535767883941,1.019731742480599
0.5208604302151075,1.0226734231366161
0.5345672836418208,1.0253244026781863
0.5482741370685342,1.0275809349767957
0.5619809904952475,1.0288539856143204
0.5756878439219609,1.028016531482961
0.5893946973486743,1.0258773868399396
0.6031015507753876,1.0241811360756945
0.616808404202101,1.0196504065374858
0.6305152576288143,1.0168258235303431
0.6442221110555277,1.0104173063063062
0.657928964482241,1.0064981589777025
0.6716358179089544,0.9996266315905235
0.6853426713356677,0.9936961509507037
0.6990495247623811,0.9869563310963951
0.7127563781890944,0.98476157479139
0.7264632316158078,0.9798489658437507
0.7401700850425212,0.9751915217851217
0.7538769384692345,0.9738601667301108
0.7675837918959479,0.9706869513038998
0.7812906453226612,0.9730757363678814
0.7949974987493746,0.9712734290054815
0.8087043521760879,0.974039438508778
0.8224112056028013,0.977842368853418
0.8361180590295146,0.9820946476372727
0.849824912456228,0.984524988364245
0.8635317658829413,0.9908359190310672
0.8772386193096547,0.9968489763966041
0.8909454727363681,1.00366290836656
0.9046523261630814,1.0076973740791544
0.9183591795897948,1.0118121649801026
0.9320660330165081,1.016692807352451
0.9457728864432215,1.0230542616664708
0.9594797398699348,1.0226901964842923
0.9731865932966483,1.0277917857872614
0.9868934467233615,1.0283504036914408
1.000600300150075,1.0266589253153318
1.0143071535767882,1.026100164740253
1.0280140070035018,1.0236512406088678
1.041720860430215,1.0206566935719183
1.0554277138569284,1.0173505163516627
1.0691345672836416,1.01421083255151
1.0828414207103552,1.0094725874413224
1.0965482741370685,1.0034188234200527
1.1102551275637818,0.9966492253910266
1.123961980990495,0.9897600928758189
1.1376688344172086,0.9844564414955975
1.1513756878439219,0.9811002625627642
1.1650825412706352,0.9767116502504619
1.1787893946973487,0.9740803524445837
1.192496248124062,0.9723773875672258
1.2062031015507753,0.9728157025383043
1.2199099549774886,0.9735325637078556
1.233616808404202,0.9742832301411505
1.2473236618309154,0.9758772384874209
1.2610305152576287,0.9793935306018489
1.274737368684342,0.9819035511360457
1.2884442221110555,0.9872095175213647
1.3021510755377688,0.9926776179919801
1.315857928964482,0.9989816597506503
1.3295647823911956,1.005135488505194
1.3432716358179089,1.009281998702735
1.3569784892446222,1.0151988377975798
1.3706853426713355,1.0179494720230367
1.384392196098049,1.023189353673913
1.3980990495247623,1.0248847139493693
1.4118059029514756,1.026031372110001
1.4255127563781889,1.0271853954764223
1.4392196098049024,1.0268513192475899
1.4529264632316157,1.027074402523751
1.466633316658329,1.023544160765231
1.4803401700850425,1.0199465845706908
1.4940470235117558,1.0153554608972066
1.507753876938469,1.0110502288459606
1.5214607303651824,1.0078525506203617
1.5351675837918959,1.0017667679904376
1.5488744372186092,0.9931870055384777
1.5625812906453225,0.9894190626070237
1.5762881440720358,0.9837077695623409
1.5899949974987493,0.9797152468124447
1.6037018509254626,0.976320852738325
1.6174087043521759,0.9749709761452037
1.6311155577788894,0.970852789162218
1.6448224112056027,0.9706561998628045
1.658529264632316,0.9729492596843732
1.6722361180590293,0.9755390729361031
1.6859429714857428,0.9771823284813789
1.699649824912456,0.9813007249777959
1.7133566783391694,0.9862157251437528
1.7270635317658827,0.9907565510328175
1.7407703851925962,0.9963228836562509
1.7544772386193095,1.0011452207888039
1.7681840920460228,1.0069662041591718
1.7818909454727363,1.0120375506258708
1.7955977988994496,1.0168897402293833
1.8093046523261629,1.0219629750077133
1.8230115057528762,1.0251307266659184
1.8367183591795897,1.0272452880848102
1.850425212606303,1.0285231761854967
1.8641320660330163,1.0277948542357935
1.8778389194597296,1.0262496167016886
1.891545772886443,1.024988925605638
1.9052526263131564,1.0208932111824753
1.9189594797398697,1.0193231182008262
1.9326663331665832,1.014904812639532
1.9463731865932965,1.0100640382899946
1.9600800400200098,1.0038568669820174
1.973786893446723,0.9976384521317748
1.9874937468734366,0.991671463175766
2.00120060030015,0.9868556778124895
2.014907453726863,0.9832392305642729
2.0286143071535765,0.9785241212384272
2.04232116058029,0.9760241055345412
2.0560280140070035,0.9729115368793312
2.069734867433717,0.9706087430359037
2.08344172086043,0.9715268965661076
2.0971485742871434,0.9738324741490113
2.1108554277138567,0.975589188455387
2.12456228114057,0.9778271260788842
2.1382691345672833,0.9823185730261509
2.1519759879939966,0.9876000850400847
2.1656828414207103,0.9935362721929021
2.1793896948474236,0.9976614780689568
2.193096548274137,1.003331502548553
2.20680340170085,1.0072604179294553
2.2205102551275635,1.015162328875153
2.234217108554277,1.0178391239740836
2.24792396198099,1.022469349123465
2.261630815407704,1.0269431008270824
2.275337668834417,1.0279196882366106
2.2890445222611304,1.0281830002946903
2.3027513756878437,1.0265772918357343
2.316458229114557,1.0266118505671593
2.3301650825412703,1.0246123746120634
2.3438719359679836,1.021257676697495
2.3575787893946973,1.0164316845419008
2.3712856428214106,1.011263718757889
2.384992496248124,1.0051325165861547
2.3986993496748372,0.9992451348804404
2.4124062031015505,0.9965626908592402
2.426113056528264,0.9904589782888807
2.439819909954977,0.9849938878996215
2.4535267633816904,0.9814008044811845
2.467233616808404,0.9759732699158706
2.4809404702351174,0.9732066068691597
2.4946473236618307,0.9709166375117234
2.508354177088544,0.9705958992987852
2.5220610305152573,0.973953787729945
2.5357678839419706,0.9744201970953906
2.549474737368684,0.9758167186399808
2.5631815907953976,0.9801113716242325
2.576888444222111,0.9851698938270993
2.5905952976488242,0.9897113637505194
2.6043021510755375,0.9958196824295157
2.618009004502251,1.001750651198289
2.631715857928964,1.0073458221004805
2.6454227113556774,1.0105292876343825
2.659129564782391,1.0164940728986072
2.6728364182091044,1.0207384135024256
2.6865432716358177,1.024436523871997
2.700250125062531,1.0266554487963997
2.7139569784892443,1.0264324242124878
2.7276638319159576,1.0273588065865844
2.741370685342671,1.026254882363631
2.755077538769384,1.0253660124041712
2.768784392196098,1.0206485991465095
2.7824912456228112,1.018715446290192
2.7961980990495245,1.0130434740739458
2.809904952476238,1.0098089852809855
2.823611805902951,1.003076306613179
2.8373186593296644,0.9982333016934717
2.8510255127563777,0.9929478761031172
2.8647323661830915,0.9866744730678961
2.8784392196098048,0.9819404302085842
2.892146073036518,0.9781023994120626
2.9058529264632313,0.9751615852908443
2.9195597798899446,0.9749897251403316
2.933266633316658,0.9729094872942018
2.9469734867433712,0.9723295491364742
2.960680340170085,0.9731633428081033
2.9743871935967983,0.9760022563968929
2.9880940470235116,0.9781417942953999
3.001800900450225,0.984331766640721
3.015507753876938,0.9880836845232371
3.0292146073036514,0.9920640791350298
3.0429214607303647,0.9975411773355954
3.056628314157078,1.0036840352089615
3.0703351675837918,1.0095136124682265
3.084042021010505,1.0147298079059284
3.0977488744372184,1.0188489346209777
3.1114557278639317,1.021131646603749
3.125162581290645,1.0255728887269384
3.1388694347173582,1.026569645252571
3.1525762881440715,1.0294569986709212
3.1662831415707853,1.0274632769753431
3.1799899949974986,1.0263242559229588
3.193696848424212,1.0241576131485155
3.207403701850925,1.020404203813253
3.2211105552776385,1.016228012540403
3.2348174087043517,1.0125441041649181
3.248524262131065,1.0070938616636802
3.262231115557779,1.0006992015680205
3.275937968984492,0.9959326967202279
3.2896448224112054,0.9909062847809376
3.3033516758379187,0.9837243686719672
3.317058529264632,0.980390663863782
3.3307653826913453,0.9772426577629927
3.3444722361180586,0.9736178709190058
3.358179089544772,0.9733630783875553
3.3718859429714856,0.9710111371971466
3.385592796398199,0.9716037829338203
3.399299649824912,0.9731277285927217
3.4130065032516255,0.9764689121423469
3.4267133566783388,0.9793908289596169
3.440420210105052,0.9842822420426702
3.4541270635317654,0.9901062524649438
3.467833916958479,0.9955491063538058
3.4815407703851924,1.0003304426301793
3.4952476238119057,1.0062487260324289
3.508954477238619,1.0105846331495445
3.5226613306653323,1.0159041880809825
3.5363681840920456,1.0192704649213773
3.550075037518759,1.022114468350403
3.5637818909454726,1.0259862232529133
3.577488744372186,1.0294341065330646
3.591195597798899,1.029347685388433
3.6049024512256125,1.0258710545902605
3.6186093046523258,1.0256410577684247
3.632316158079039,1.0212920687064981
3.6460230115057524,1.0191967693533872
3.659729864932466,1.0151141575573985
3.6734367183591794,1.009729131260332
3.6871435717858927,1.0049795863236595
3.700850425212606,0.9982702830767105
3.7145572786393193,0.9928175927360338
3.7282641320660326,0.9884492001984129
3.741970985492746,0.9848360776392565
3.755677838919459,0.9796576048329055
3.769384692346173,0.9768946659382591
3.783091545772886,0.9742275005573403
3.7967983991995995,0.9725429591745649
3.810505252626313,0.9731835028250285
3.824212106053026,0.9723870374668354
3.8379189594797394,0.9756981856676905
3.8516258129064527,0.9781801301690828
3.8653326663331664,0.9822976062690738
3.8790395197598797,0.9868855167908241
3.892746373186593,0.9909489763720596
3.9064532266133063,0.9956461644051328
3.9201600800400196,1.0018915188891384
3.933866933466733,1.0093418441972968
3.947573786893446,1.0129928925112106
3.96128064032016,1.0194142445927905
3.974987493746873,1.021422390152096
3.9886943471735865,1.0222071353009534
4.0024012006003,1.026740100176325
4.016108054027013,1.0284038405812204
4.029814907453726,1.0273075717103848
4.04352176088044,1.0273625807519742
4.057228614307153,1.0251663889263665
4.070935467733866,1.0224328102652287
4.08464232116058,1.0166229593028546
4.098349174587293,1.0129967016239763
4.112056028014007,1.0057558774689943
4.12576288144072,1.0021679119440636
4.139469734867434,0.994368637241988
4.153176588294147,0.9923739242786748
4.16688344172086,0.9862932755756659
4.1805902951475735,0.9803891309913016
4.194297148574287,0.9787293103589356
4.208004002001,0.9752559033373693
4.221710855427713,0.9737729726466597
4.235417708854427,0.9714786161456835
4.24912456228114,0.9714883790870752
4.262831415707853,0.973327783846888
4.276538269134567,0.9756198573357363
4.29024512256128,0.9798779072662473
4.303951975987993,0.9848790075876387
4.317658829414707,0.9896562431399295
4.331365682841421,0.9940814973660348
4.345072536268134,0.9998005552486772
4.358779389694847,1.0043512358236457
4.3724862431215605,1.0105396489478486
4.386193096548274,1.014187804186934
4.399899949974987,1.0178749344922107
4.4136068034017,1.0235852998020971
4.427313656828414,1.0253057246750625
4.441020510255127,1.0274817166301555
4.45472736368184,1.0282491283608732
4.468434217108554,1.027624172099741
4.482141070535267,1.0266971527477278
4.49584792396198,1.023040109378624
4.5095547773886935,1.0208790744381178
4.523261630815408,1.0161520260552739
4.536968484242121,1.0108384268877646
4.550675337668834,1.0051290190336564
4.5643821910955475,0.9985697072556089
4.578089044522261,0.9951965510049533
4.591795897948974,0.988959182366799
4.605502751375687,0.9856948942201951
4.619209604802401,0.9791305787344128
4.632916458229114,0.9753629452516593
4.646623311655827,0.9737347762173766
4.660330165082541,0.9718213616428495
4.674037018509254,0.9723419981364876
4.687743871935967,0.9733043436439633
4.7014507253626805,0.9757663499014042
4.715157578789395,0.9782346247845107
4.728864432216108,0.9811974504122527
4.742571285642821,0.9845232910238904
4.756278139069535,0.990875860697313
4.769984992496248,0.9960792983553798
4.783691845922961,1.0040658474534339
4.7973986993496744,1.0068074528099078
4.811105552776388,1.0140505569756597
4.824812406203101,1.017547771709124
4.838519259629814,1.0210439722586653
4.852226113056528,1.0234179820654519
4.865932966483241,1.0262115830042509
4.879639819909954,1.0264167454347257
4.8933466733366675,1.0286153768335218
4.907053526763381,1.026688455643714
4.920760380190095,1.0252099023271428
4.934467233616808,1.0195157598050146
4.948174087043522,1.0182108587015213
4.961880940470235,1.0123723794461996
4.975587793896948,1.0072318805637401
4.9892946473236615,1.0008631826235885
5.003001500750375,0.9982007790008879
5.016708354177088,0.9954018485575995
5.030415207603801,0.9874301919948854
5.044122061030515,0.9811561092368195
5.057828914457228,0.9779377778786608
5.071535767883941,0.9745753045435696
5.0852426213106545,0.9728524192761484
5.098949474737368,0.9729079942934696
5.112656328164081,0.9722041071074763
5.126363181590795,0.9729907569000457
5.140070035017509,0.9758869934676719
5.153776888444222,0.9788617711244763
5.167483741870935,0.9845961785401861
5.1811905952976485,0.9874874781391948
5.194897448724362,0.9960615442589565
5.208604302151075,0.9991352618364391
5.222311155577788,1.0045034368589394
5.236018009004502,1.009735947829548
5.249724862431215,1.0136703498608055
5.263431715857928,1.020839145463858
5.2771385692846415,1.023362503043316
5.290845422711355,1.0260873204981096
5.304552276138068,1.0284123820513649
5.318259129564782,1.0278991202722245
5.331965982991496,1.0260760121813979
5.345672836418209,1.0265558676296462
5.359379689844922,1.0233793922815164
5.3730865432716355,1.0198377544985247
5.386793396698349,1.0169661680475666
5.400500250125062,1.0130096139023048
5.414207103551775,1.005665466578404
5.427913956978489,0.9989575332554741
5.441620810405202,0.994309806581043
5.455327663831915,0.9897398835692
5.4690345172586285,0.9829367993731126
5.482741370685342,0.978403856213677
5.496448224112055,0.9764662007080288
5.510155077538768,0.9742558878145969
5.523861930965483,0.9731306188040277
5.537568784392196,0.9734216160446769
5.551275637818909,0.9704833989411905
5.5649824912456225,0.9755720014297964
5.578689344672336,0.9780924479785081
5.592396198099049,0.9801092221155508
5.606103051525762,0.985367485726384
5.619809904952476,0.9910117108533272
5.633516758379189,0.9943186799250934
5.647223611805902,1.0020832160912696
5.660930465232616,1.0087153920015022
5.674637318659329,1.0109036426338056
5.688344172086042,1.017608874644705
5.7020510255127554,1.0217082083647953
5.71575787893947,1.0234210787226092
5.729464732366183,1.0253100567746305
5.743171585792896,1.0278454701573538
5.7568784392196095,1.027719724010545
5.770585292646323,1.02762076505711
5.784292146073036,1.024322589898264
5.797998999499749,1.023451016983114
5.811705852926463,1.0180707611898459
5.825412706353176,1.0138585762123844
5.839119559779889,1.0090908968830457
5.852826413206603,1.0038496382454052
5.866533266633316,0.9969358720517426
5.880240120060029,0.9913862166358396
5.8939469734867425,0.9868241792629443
5.907653826913456,0.9820556118028413
5.92136068034017,0.977626932965656
5.935067533766883,0.9741673974601406
5.9487743871935965,0.9729933205290089
5.96248124062031,0.9726329479086653
5.976188094047023,0.9725841518009803
5.989894947473736,0.9743371588545013
6.00360180090045,0.9737802096590605
6.017308654327163,0.9796027919789254
6.031015507753876,0.9832499269882868
6.04472236118059,0.9873982383525045
6.058429214607303,0.9912725013851894
6.072136068034016,0.9966895939016822
6.0858429214607295,1.0023169862750396
6.099549774887443,1.0084485456409429
6.113256628314156,1.0135127786380793
6.12696348174087,1.0165877781896944
6.1406703351675835,1.0218067892095124
6.154377188594297,1.025752259092002
6.16808404202101,1.0258481839718467
6.181790895447723,1.0273680518302204
6.195497748874437,1.0282220744146189
6.20920460230115,1.027178291828137
6.222911455727863,1.0242475599681502
6.236618309154577,1.0197065203178142
6.25032516258129,1.0157903058586684
6.264032016008003,1.0119562408526936
6.2777388694347165,1.0054082765006533
6.29144572286143,1.0012406434728112
6.305152576288143,0.9951070210061946
6.318859429714857,0.9900421494076131
6.3325662831415706,0.9857831771112491
6.346273136568284,0.9801731782847575
6.359979989994997,0.9750774282401538
6.37368684342171,0.9741168825218186
6.387393696848424,0.9729882088163005
6.401100550275137,0.9703651868401844
6.41480740370185,0.9723229374478879
6.428514257128564,0.9729229859661992
6.442221110555277,0.9775418369185025
6.45592796398199,0.9788412245823394
6.4696348174087035,0.9850853839049101
6.483341670835417,0.9905590741365361
6.49704852426213,0.9938279337452772
6.510755377688843,1.0001740036612696
6.524462231115558,1.0078512658346468
6.538169084542271,1.0107027625463505
6.551875937968984,1.0160776066095218
6.5655827913956974,1.020969919893648
6.579289644822411,1.0234008219407562
6.592996498249124,1.0272700028074997
6.606703351675837,1.027228215925036
6.620410205102551,1.0283730167859686
6.634117058529264,1.027019662803932
6.647823911955977,1.0247977637246024
6.6615307653826905,1.0230262721064494
6.675237618809404,1.0184316831840659
6.688944472236117,1.013484305432536
6.70265132566283,1.0095880660376877
6.716358179089544,1.0041086504068906
6.730065032516258,0.9947928690499271
6.743771885942971,0.9945310946963808
6.7574787393696845,0.986620657829009
6.771185592796398,0.9830193854036735
6.784892446223111,0.9789647778905459
6.798599299649824,0.9740081234326999
6.812306153076538,0.9735841043293862
6.826013006503251,0.9720427473133918
6.839719859929964,0.9707381829401343
6.8534267133566775,0.9730974265701845
6.867133566783391,0.975571055149426
6.880840420210104,0.9778830869784866
6.894547273636817,0.9831398825019039
6.908254127063531,0.9872169288302594
6.921960980490245,0.9937206692381397
6.935667833916958,0.9990504241967237
6.9493746873436715,1.003288881690139
6.963081540770385,1.0075550704257277
6.976788394197098,1.0121595518778659
6.990495247623811,1.0191209870073596
7.004202101050525,1.0222849738414916
7.017908954477238,1.0231265602412742
7.031615807903951,1.027236409766653
7.0453226613306645,1.027588326005853
7.059029514757378,1.027295467782524
7.072736368184091,1.0255703070441122
7.086443221610804,1.0239222834391883
7.100150075037518,1.0207063481262701
7.113856928464231,1.0159015230205464
7.127563781890945,1.014331173051999
7.1412706353176585,1.005384661859872
7.154977488744372,0.9998768884487739
7.168684342171085,0.9957314895790904
7.182391195597798,0.9898878973533959
7.196098049024512,0.9855296899716912
7.209804902451225,0.9810835709964093
7.223511755877938,0.9772130410566032
7.2372186093046516,0.9743448598978047
7.250925462731365,0.9738555194029707
7.264632316158078,0.9727765752390983
7.278339169584791,0.9721720340866942
7.292046023011505,0.9738285699374447
7.305752876438218,0.9757070267432997
7.319459729864932,0.9798165234847505
7.3331665832916455,0.9829327471450232
7.346873436718359,0.9888172680148684
