time,flux
0.0,0.9722559382151075
0.013706853426713355,0.9736781624708014
0.02741370685342671,0.9752696826967329
0.041120560280140064,0.9772939826188856
0.05482741370685342,0.9791957416025079
0.06853426713356678,0.9798935599624591
0.08224112056028013,0.9831804097067197
0.09594797398699349,0.9858561751460805
0.10965482741370684,0.990560442262945
0.1233616808404202,0.9928284392570138
0.13706853426713356,0.9953541294577387
0.1507753876938469,0.9991087097679064
0.16448224112056026,1.0013898610360954
0.1781890945472736,1.0043832066509728
0.19189594797398699,1.0075012346170995
0.20560280140070034,1.0097296703877083
0.21930965482741369,1.0141745616066262
0.23301650825412704,1.0166009233314985
0.2467233616808404,1.0193948142221152
0.26043021510755376,1.021273555978032
0.2741370685342671,1.0245458472667683
0.28784392196098046,1.0264180300532708
0.3015507753876938,1.027582950773162
0.31525762881440716,1.0290035234509256
0.3289644822411205,1.03076509853228
0.34267133566783387,1.032372610223612
0.3563781890945472,1.0334237688113581
0.3700850425212606,1.0319041397377395
0.38379189594797397,1.0327725378105999
0.3974987493746873,1.032551639107297
0.41120560280140067,1.0300140947348073
0.424912456228114,1.0293537071318761
0.43861930965482737,1.027404990303211
0.4523261630815407,1.02567850599748
0.46603301650825407,1.0223702426909056
0.4797398699349674,1.0196309571683109
0.4934467233616808,1.0149372631903284
0.5071535767883941,1.0121863280460335
0.5208604302151075,1.0088004056245727
0.5345672836418208,1.0041925022906804
0.5482741370685342,0.9997304307060244
0.5619809904952475,0.9953369875585352
0.5756878439219609,0.9918687148477324
0.5893946973486743,0.986405904870269
0.6031015507753876,0.9828283851555563
0.616808404202101,0.9782783943839154
0.6305152576288143,0.974566547792784
0.6442221110555277,0.9715293209676501
0.657928964482241,0.9677219365654794
0.6716358179089544,0.9649378352673545
0.6853426713356677,0.9626716720811788
0.6990495247623811,0.9622719311388193
0.7127563781890944,0.9602282601963662
0.7264632316158078,0.9589731202293228
0.7401700850425212,0.9606492619172385
0.7538769384692345,0.9607502857545983
0.7675837918959479,0.9622894036546422
0.7812906453226612,0.9644526718240624
0.7949974987493746,0.9662103622329743
0.8087043521760879,0.9689004181115907
0.8224112056028013,0.9722551298401417
0.8361180590295146,0.9762569470277848
0.849824912456228,0.981266225100716
0.8635317658829413,0.9871541508863961
0.8772386193096547,0.9923927534671146
0.8909454727363681,0.9962510954941067
0.9046523261630814,1.0009444485753856
0.9183591795897948,1.0064821384271705
0.9320660330165081,1.0115173851411972
0.9457728864432215,1.0143310766407059
0.9594797398699348,1.0192709587159696
0.9731865932966483,1.0243709251796096
0.9868934467233615,1.028654429074523
1.000600300150075,1.0301843007487577
1.0143071535767882,1.032581074490034
1.0280140070035018,1.0345961521954103
1.041720860430215,1.0367557645965257
1.0554277138569284,1.0375384224070876
1.0691345672836416,1.0368735003673852
1.0828414207103552,1.035085404089956
1.0965482741370685,1.0356485430887419
1.1102551275637818,1.0329501961912748
1.123961980990495,1.030563070632251
1.1376688344172086,1.0277743384841422
1.1513756878439219,1.0261435386291398
1.1650825412706352,1.0221318111560571
1.1787893946973487,1.017920700542022
1.192496248124062,1.0142026656427283
1.2062031015507753,1.0107240282720205
1.2199099549774886,1.0063871635938582
1.233616808404202,1.0027577694798409
1.2473236618309154,0.9981486958832797
1.2610305152576287,0.9946367401442573
1.274737368684342,0.9910874255718453
1.2884442221110555,0.9871096836293308
1.3021510755377688,0.9854572490939432
1.315857928964482,0.9836407329125342
1.3295647823911956,0.9813896311419305
1.3432716358179089,0.9796183339328176
1.3569784892446222,0.9793636247019657
1.3706853426713355,0.9786312943992311
1.384392196098049,0.9785363030093073
1.3980990495247623,0.9788188344312613
1.4118059029514756,0.978515580309187
1.4255127563781889,0.9794898617133219
1.4392196098049024,0.9822772822401101
1.4529264632316157,0.9827056835539156
1.466633316658329,0.985353400579827
1.4803401700850425,0.9858054688441473
1.4940470235117558,0.9881992767993812
1.507753876938469,0.9902901264768786
1.5214607303651824,0.9922516865447588
1.5351675837918959,0.9947001882898786
1.5488744372186092,0.9945025847681064
1.5625812906453225,0.996355710443914
1.5762881440720358,0.9970863826845201
1.5899949974987493,0.9997906462551339
1.6037018509254626,0.998839784078316
1.6174087043521759,0.9996065134196834
1.6311155577788894,1.0018938872024883
1.6448224112056027,1.0013967624939637
1.658529264632316,1.001281259572425
1.6722361180590293,1.0021345598720486
1.6859429714857428,1.0015487567236094
1.699649824912456,1.0015774573212923
1.7133566783391694,1.0004453368384008
1.7270635317658827,0.9995174641413251
1.7407703851925962,1.0002413364142688
1.7544772386193095,0.9988548860128458
1.7681840920460228,0.997846334617056
1.7818909454727363,0.9992571264613281
1.7955977988994496,1.0008619812898392
1.8093046523261629,0.9988312543256175
1.8230115057528762,0.998266367164332
1.8367183591795897,0.9990228828486967
1.850425212606303,0.999517617455923
1.8641320660330163,1.0006277943344524
1.8778389194597296,1.0008094019676568
1.891545772886443,1.0024067154044285
1.9052526263131564,1.0032877868081598
1.9189594797398697,1.0041420396464569
1.9326663331665832,1.0066703400371215
1.9463731865932965,1.0061849723677014
1.9600800400200098,1.0086355239483535
1.973786893446723,1.0100743074738658
1.9874937468734366,1.010635202035155
2.00120060030015,1.0114879651256037
2.014907453726863,1.0130063065031794
2.0286143071535765,1.0146296083486808
2.04232116058029,1.0144045776621669
2.0560280140070035,1.0163474861204302
2.069734867433717,1.0167897079801056
2.08344172086043,1.0154549929258114
2.0971485742871434,1.0159112354080762
2.1108554277138567,1.0145725063539441
2.12456228114057,1.0134512693007802
2.1382691345672833,1.012250920180058
2.1519759879939966,1.0111051473082078
2.1656828414207103,1.0097605630679098
2.1793896948474236,1.0071050848961798
2.193096548274137,1.0058245232713634
2.20680340170085,1.0043551527725836
2.2205102551275635,1.0011826891203015
2.234217108554277,0.9993745954016588
2.24792396198099,0.9968916690460055
2.261630815407704,0.9948366586663017
2.275337668834417,0.992836780390821
2.2890445222611304,0.9913830524841845
2.3027513756878437,0.9889198137364139
2.316458229114557,0.9874863252873163
2.3301650825412703,0.9848249978963429
2.3438719359679836,0.9837648892191667
2.3575787893946973,0.98166989108118
2.3712856428214106,0.9801758475773615
2.384992496248124,0.9810522807543597
2.3986993496748372,0.9811632024449701
2.4124062031015505,0.9795583576687231
2.426113056528264,0.9782287888976245
2.439819909954977,0.9800188316538622
2.4535267633816904,0.980398974803732
2.467233616808404,0.9798746578360534
2.4809404702351174,0.9804364341671513
2.4946473236618307,0.9804387202841978
2.508354177088544,0.9831991896227583
2.5220610305152573,0.9833504332983511
2.5357678839419706,0.9867061594701081
2.549474737368684,0.9866268584258383
2.5631815907953976,0.9907425230651793
2.576888444222111,0.9904843912100263
2.5905952976488242,0.9927197213113995
2.6043021510755375,0.9961786775716613
2.618009004502251,0.9963616195976004
2.631715857928964,1.000253878947327
2.6454227113556774,1.0013060177913646
2.659129564782391,1.0046167998003104
2.6728364182091044,1.0062814694408047
2.6865432716358177,1.0091799443572982
2.700250125062531,1.0103825990003608
2.7139569784892443,1.0131523308833252
2.7276638319159576,1.0154504043172363
2.741370685342671,1.0164064094911305
2.755077538769384,1.017427216559353
2.768784392196098,1.0198169962173762
2.7824912456228112,1.0211631235420848
2.7961980990495245,1.0210471288526586
2.809904952476238,1.0244674142112584
2.823611805902951,1.02522356369437
2.8373186593296644,1.0261441304741223
2.8510255127563777,1.0268490704598434
2.8647323661830915,1.027356374012273
2.8784392196098048,1.0264491627651615
2.892146073036518,1.0272753014251745
2.9058529264632313,1.025482422352079
2.9195597798899446,1.0244091294229043
2.933266633316658,1.0232624197388611
2.9469734867433712,1.0203694881448184
2.960680340170085,1.0187040411811816
2.9743871935967983,1.017650069840817
2.9880940470235116,1.013955099357473
3.001800900450225,1.0128497268519634
3.015507753876938,1.0082556558820717
3.0292146073036514,1.0038424523438085
3.0429214607303647,1.000322810641275
3.056628314157078,0.996650729322711
3.0703351675837918,0.9915221398948041
3.084042021010505,0.9869799881258896
3.0977488744372184,0.9834711654662516
3.1114557278639317,0.9791056377043511
3.125162581290645,0.9759949903999742
3.1388694347173582,0.972737113800566
3.1525762881440715,0.9685034953537401
3.1662831415707853,0.9653650560135835
3.1799899949974986,0.9631413433388386
3.193696848424212,0.9619402037551302
3.207403701850925,0.9600818206702996
3.2211105552776385,0.9585188189442224
3.2348174087043517,0.9604348914938943
3.248524262131065,0.9612303196485309
3.262231115557779,0.9613682057575504
3.275937968984492,0.9626840672640623
3.2896448224112054,0.9656256279221512
3.3033516758379187,0.9693126837989816
3.317058529264632,0.9727382201103985
3.3307653826913453,0.9767396127726549
3.3444722361180586,0.9811664756670069
3.358179089544772,0.9855554240572962
3.3718859429714856,0.9901623508393964
3.385592796398199,0.9958988718428959
3.399299649824912,1.0008563924171048
3.4130065032516255,1.006211771685333
3.4267133566783388,1.0128130304439122
3.440420210105052,1.0170496480436393
3.4541270635317654,1.022182640450577
3.467833916958479,1.0271641035207215
3.4815407703851924,1.0314873314896476
3.4952476238119057,1.033645040194397
3.508954477238619,1.038336937744808
3.5226613306653323,1.0417521410809718
3.5363681840920456,1.0428639620389066
3.550075037518759,1.0434599121383497
3.5637818909454726,1.0450043189403357
3.577488744372186,1.0449101122618765
3.591195597798899,1.0419969777445535
3.6049024512256125,1.0414104664595856
3.6186093046523258,1.0379064029940188
3.632316158079039,1.0373181377186473
3.6460230115057524,1.031410773827899
3.659729864932466,1.028230056368104
3.6734367183591794,1.0238707924063077
3.6871435717858927,1.0188666093584051
3.700850425212606,1.0138266838455272
3.7145572786393193,1.008854537795215
3.7282641320660326,1.003203035471064
3.741970985492746,0.99703279099682
3.755677838919459,0.9933296670882341
3.769384692346173,0.9885228447264568
3.783091545772886,0.9849809677889594
3.7967983991995995,0.980700903371443
3.810505252626313,0.9772969378681506
3.824212106053026,0.9734490292681695
3.8379189594797394,0.9717304347756516
3.8516258129064527,0.9678628162739256
3.8653326663331664,0.9660521009564915
3.8790395197598797,0.9669410977058375
3.892746373186593,0.9642438790101927
3.9064532266133063,0.9651631157176844
3.9201600800400196,0.9661331648573376
3.933866933466733,0.9676570745640665
3.947573786893446,0.969602720674732
3.96128064032016,0.9716924705858792
3.974987493746873,0.9740821617700401
3.9886943471735865,0.9762813501568984
4.0024012006003,0.9794333406308136
4.016108054027013,0.9832004817026954
4.029814907453726,0.9858068141676075
4.04352176088044,0.9892971974316278
4.057228614307153,0.9919338847201552
4.070935467733866,0.9939935099123574
4.08464232116058,0.9986692609500297
4.098349174587293,1.000529712900753
4.112056028014007,1.0040690665206378
4.12576288144072,1.0063967270201293
4.139469734867434,1.009753128288507
4.153176588294147,1.0097840862926823
4.16688344172086,1.0132517974157575
4.1805902951475735,1.012732904507145
4.194297148574287,1.014388000710906
4.208004002001,1.0159738789161736
4.221710855427713,1.0152512324132372
4.235417708854427,1.0158381642460255
4.24912456228114,1.0158405203804612
4.262831415707853,1.015135531803906
4.276538269134567,1.0140104631614708
4.29024512256128,1.0144176656003636
4.303951975987993,1.014513265541032
4.317658829414707,1.0137305341587204
4.331365682841421,1.0125853629947237
4.345072536268134,1.0115924128935132
4.358779389694847,1.0119954361417065
4.3724862431215605,1.011032800479431
4.386193096548274,1.0109058669711992
4.399899949974987,1.0090895961590252
4.4136068034017,1.0081178186238904
4.427313656828414,1.008420379801211
4.441020510255127,1.0080414061394514
4.45472736368184,1.0062077511097387
4.468434217108554,1.0077246879550876
4.482141070535267,1.0066405365094726
4.49584792396198,1.0052470043518116
4.5095547773886935,1.0049487463869102
4.523261630815408,1.0038479772033042
4.536968484242121,1.0034405851007226
4.550675337668834,1.0028918127062434
4.5643821910955475,1.0022527122286051
4.578089044522261,1.000184700386556
4.591795897948974,1.0003159768521384
4.605502751375687,0.9991011031613076
4.619209604802401,0.9970228853028321
4.632916458229114,0.9981125550908386
4.646623311655827,0.9964636597310731
4.660330165082541,0.9949619952913021
4.674037018509254,0.9938062027836022
4.687743871935967,0.9927438980236245
4.7014507253626805,0.9919321722449138
4.715157578789395,0.9893661289140412
4.728864432216108,0.9899468730511272
4.742571285642821,0.9889542048152385
4.756278139069535,0.9886529496014845
4.769984992496248,0.9880323460256405
4.783691845922961,0.9874399419967194
4.7973986993496744,0.9867507468484309
4.811105552776388,0.9876893457163844
4.824812406203101,0.9864094190019121
4.838519259629814,0.9859509747270527
4.852226113056528,0.9864844590564716
4.865932966483241,0.9871356480439125
4.879639819909954,0.9885381877571741
4.8933466733366675,0.9892293025053465
4.907053526763381,0.9885411047611042
4.920760380190095,0.9902442328479248
4.934467233616808,0.9912485993547552
4.948174087043522,0.9918374732514831
4.961880940470235,0.9944361284590256
4.975587793896948,0.9952198827118451
4.9892946473236615,0.9958940609864949
5.003001500750375,0.9974609232180733
5.016708354177088,0.997883619581577
5.030415207603801,1.0001036828299812
5.044122061030515,1.0006867273953046
5.057828914457228,1.0013670982657126
5.071535767883941,1.0031547495365578
5.0852426213106545,1.0043342451021433
5.098949474737368,1.0048550986543292
5.112656328164081,1.0047282879283537
5.126363181590795,1.005631671890364
5.140070035017509,1.005308737561296
5.153776888444222,1.007546191991791
5.167483741870935,1.0078537611638911
5.1811905952976485,1.0078187970781858
5.194897448724362,1.0096980745194832
5.208604302151075,1.0108402047067007
5.222311155577788,1.0101277155076072
5.236018009004502,1.0106398213545429
5.249724862431215,1.0104561089686368
5.263431715857928,1.0108353583771057
5.2771385692846415,1.012585428063391
5.290845422711355,1.011751029383714
5.304552276138068,1.0127196866177741
5.318259129564782,1.0131980204757505
5.331965982991496,1.0140750242403487
5.345672836418209,1.0142417737424687
5.359379689844922,1.0144030235514871
5.3730865432716355,1.0143817643951185
5.386793396698349,1.0150378829185012
5.400500250125062,1.0137056267542033
5.414207103551775,1.0143678820999413
5.427913956978489,1.0134529666936232
5.441620810405202,1.0119225108579073
5.455327663831915,1.0106080311027368
5.4690345172586285,1.010091843450936
5.482741370685342,1.0076888607249601
5.496448224112055,1.0066074834662169
5.510155077538768,1.0049998034166008
5.523861930965483,1.0025563211427726
5.537568784392196,0.9986454068625833
5.551275637818909,0.9980043082308889
5.5649824912456225,0.993557927895414
5.578689344672336,0.9923030486499193
5.592396198099049,0.9882558047188646
5.606103051525762,0.9844145299749782
5.619809904952476,0.982381388762232
5.633516758379189,0.9782836463436609
5.647223611805902,0.9768612145982367
5.660930465232616,0.9741102068648717
5.674637318659329,0.9719486415717369
5.688344172086042,0.9705456771514052
5.7020510255127554,0.9678389813721789
5.71575787893947,0.9673140279161461
5.729464732366183,0.9667255968842655
5.743171585792896,0.9675255826410416
5.7568784392196095,0.9676611498867853
5.770585292646323,0.9682116803143201
5.784292146073036,0.9699827324041412
5.797998999499749,0.971694406017216
5.811705852926463,0.9760027222948402
5.825412706353176,0.9792891545418724
5.839119559779889,0.9818527607108823
5.852826413206603,0.9856912376838053
5.866533266633316,0.9907574700169647
5.880240120060029,0.9953796726522516
5.8939469734867425,1.000903125994187
5.907653826913456,1.0056368137905731
5.92136068034017,1.0108830004799079
5.935067533766883,1.01531202630972
5.9487743871935965,1.0201688003646745
5.96248124062031,1.0252302325994305
5.976188094047023,1.0297097873736138
5.989894947473736,1.0335237827319506
6.00360180090045,1.0370484968853366
6.017308654327163,1.0387971001677017
6.031015507753876,1.0422057091944086
6.04472236118059,1.043192213845082
6.058429214607303,1.0439859983759132
6.072136068034016,1.0442650653284427
6.0858429214607295,1.044115874599419
6.099549774887443,1.042645726519751
6.113256628314156,1.0395145223244564
6.12696348174087,1.0368592710674942
6.1406703351675835,1.0340717269641788
6.154377188594297,1.0299637530213868
6.16808404202101,1.025897069576719
6.181790895447723,1.0208111187533373
6.195497748874437,1.0156872479875523
6.20920460230115,1.0098130105033856
6.222911455727863,1.004619474482429
6.236618309154577,0.9990704054297653
6.25032516258129,0.9934416360954593
6.264032016008003,0.98871841651881
6.2777388694347165,0.9841623843856665
6.29144572286143,0.9789761248868774
6.305152576288143,0.9738598931116704
6.318859429714857,0.9702535021874805
6.3325662831415706,0.966496027362108
6.346273136568284,0.9638432048622727
6.359979989994997,0.9617664015289338
6.37368684342171,0.9594836148445877
6.387393696848424,0.9598553745701767
6.401100550275137,0.9598106744068657
6.41480740370185,0.9591342194801417
6.428514257128564,0.9592338497937342
6.442221110555277,0.9620813189439855
6.45592796398199,0.9647515197557359
6.4696348174087035,0.9678974784580381
6.483341670835417,0.9697357829473683
6.49704852426213,0.9733063234506594
6.510755377688843,0.9763101888822888
6.524462231115558,0.9813076989470944
6.538169084542271,0.9868815781864524
6.551875937968984,0.9902236166735533
6.5655827913956974,0.993822631407242
6.579289644822411,0.9979415250572933
6.592996498249124,1.0018531142209484
6.606703351675837,1.0059897078603224
6.620410205102551,1.0092126133909414
6.634117058529264,1.0139928934633247
6.647823911955977,1.0166369546697298
6.6615307653826905,1.0189732324449687
6.675237618809404,1.0217035346213648
6.688944472236117,1.0238719608829434
6.70265132566283,1.0246144194429967
6.716358179089544,1.0255681490092363
6.730065032516258,1.0277760937195728
6.743771885942971,1.0275123556182848
6.7574787393696845,1.027493045705977
6.771185592796398,1.0265773498732924
6.784892446223111,1.026776641963505
6.798599299649824,1.0266765562555376
6.812306153076538,1.024644655048033
6.826013006503251,1.0231408648395446
6.839719859929964,1.022414309746365
6.8534267133566775,1.0213212516827255
6.867133566783391,1.0192720909479522
6.880840420210104,1.0160132724975512
6.894547273636817,1.0153294747183887
6.908254127063531,1.0124744373542465
6.921960980490245,1.0095849393808842
6.935667833916958,1.0086306824761972
6.9493746873436715,1.0059126040363824
6.963081540770385,1.0034833003766124
6.976788394197098,1.0027527108491399
6.990495247623811,1.0003140469932092
7.004202101050525,0.9971818150416434
7.017908954477238,0.9951295416852975
7.031615807903951,0.9933829909394966
7.0453226613306645,0.9916703564551346
7.059029514757378,0.9900965097589164
7.072736368184091,0.9883494015779667
7.086443221610804,0.9869456549132534
7.100150075037518,0.9845929058625983
7.113856928464231,0.9843379982622801
7.127563781890945,0.9828872858898875
7.1412706353176585,0.9817504670691032
7.154977488744372,0.9816618020280908
7.168684342171085,0.9807288299243958
7.182391195597798,0.9803108449549094
7.196098049024512,0.9791473856453092
7.209804902451225,0.9792116662379918
7.223511755877938,0.9808776937462296
7.2372186093046516,0.9810202880968802
7.250925462731365,0.981069951456003
7.264632316158078,0.9818791995069712
7.278339169584791,0.9828668408385449
7.292046023011505,0.9852647808821928
7.305752876438218,0.9866085111647231
7.319459729864932,0.9882699484226771
7.3331665832916455,0.9908639398617639
7.346873436718359,0.992106431193679
