time,flux
0.0,0.9805990405627041
0.013706853426713355,0.9860652738667933
0.02741370685342671,0.9923961710792997
0.041120560280140064,1.0003201762863307
0.05482741370685342,1.0064351282970512
0.06853426713356678,1.013640230245516
0.08224112056028013,1.0201266467357162
0.09594797398699349,1.0254476249648339
0.10965482741370684,1.0293164290158754
0.1233616808404202,1.0328091067795109
0.13706853426713356,1.0336904438068681
0.1507753876938469,1.0334773344644859
0.16448224112056026,1.0329982212716762
0.1781890945472736,1.0287033928390843
0.19189594797398699,1.0261232518576808
0.20560280140070034,1.018858283417692
0.21930965482741369,1.013586336031383
0.23301650825412704,1.0071144365851623
0.2467233616808404,1.0004250929829326
0.26043021510755376,0.9931924782933566
0.2741370685342671,0.9878900528971147
0.28784392196098046,0.9826340661947761
0.3015507753876938,0.9773067182403808
0.31525762881440716,0.974722773219815
0.3289644822411205,0.9737812955340328
0.34267133566783387,0.9726097314769108
0.3563781890945472,0.9736742417372444
0.3700850425212606,0.9770980723526768
0.38379189594797397,0.9774725094311384
0.3974987493746873,0.981121017206424
0.41120560280140067,0.9864641674973507
0.424912456228114,0.9916683794249528
0.43861930965482737,0.9972524235227068
0.4523261630815407,1.0016296485341944
0.46603301650825407,1.0075054528496563
0.4797398699349674,1.009979879529059
0.4934467233616808,1.0122463524998004
0.5071535767883941,1.0150919758494366
0.5208604302151075,1.015591813719286
0.5345672836418208,1.0178259097172864
0.5482741370685342,1.0155077936243586
0.5619809904952475,1.0135396917107378
0.5756878439219609,1.012088248571651
0.5893946973486743,1.0080907186088692
0.6031015507753876,1.0076214660810365
0.616808404202101,1.0030578111815522
0.6305152576288143,1.0001369239288962
0.6442221110555277,0.996768654694958
0.657928964482241,0.9943507143874023
0.6716358179089544,0.9935174708031862
0.6853426713356677,0.9906200188047046
0.6990495247623811,0.9917313209002414
0.7127563781890944,0.9919228816932616
0.7264632316158078,0.9934843542309908
0.7401700850425212,0.9942051700301077
0.7538769384692345,0.9974153301273139
0.7675837918959479,0.9988755748696787
0.7812906453226612,1.0031072464258537
0.7949974987493746,1.0049090843036703
0.8087043521760879,1.007071627463509
0.8224112056028013,1.0091716457173214
0.8361180590295146,1.012264882879186
0.849824912456228,1.0124772963849176
0.8635317658829413,1.0108156571045694
0.8772386193096547,1.0109946451875012
0.8909454727363681,1.0099815589016228
0.9046523261630814,1.0067567395685968
0.9183591795897948,1.0040510110559804
0.9320660330165081,1.000576916132318
0.9457728864432215,0.9942596403628794
0.9594797398699348,0.9918041664897967
0.9731865932966483,0.9885273342024197
0.9868934467233615,0.9833690397151138
1.000600300150075,0.9832842329048759
1.0143071535767882,0.980128884416866
1.0280140070035018,0.9789982818133706
1.041720860430215,0.9780793065716772
1.0554277138569284,0.9797113090288266
1.0691345672836416,0.9801538197692348
1.0828414207103552,0.9853983438259422
1.0965482741370685,0.9892185617788888
1.1102551275637818,0.993266745121026
1.123961980990495,1.0002721485966672
1.1376688344172086,1.0044315373076973
1.1513756878439219,1.009957479082107
1.1650825412706352,1.0155549516732854
1.1787893946973487,1.0212065227499731
1.192496248124062,1.0250418980281684
1.2062031015507753,1.0273804210228805
1.2199099549774886,1.029560257888745
1.233616808404202,1.029832213924027
1.2473236618309154,1.0295925391039116
1.2610305152576287,1.0260920918330034
1.274737368684342,1.0227875714985297
1.2884442221110555,1.0191018654472486
1.3021510755377688,1.0113759311355022
1.315857928964482,1.0064245269407124
1.3295647823911956,0.9986893889093427
1.3432716358179089,0.993120569004407
1.3569784892446222,0.986554484498629
1.3706853426713355,0.980127780546231
1.384392196098049,0.9760830385301317
1.3980990495247623,0.9713560696991975
1.4118059029514756,0.9695327739915466
1.4255127563781889,0.9674011983605786
1.4392196098049024,0.9679678743894757
1.4529264632316157,0.9696755293044169
1.466633316658329,0.972799697000681
1.4803401700850425,0.9777868486850753
1.4940470235117558,0.9819508667430606
1.507753876938469,0.9887218408292783
1.5214607303651824,0.9947150603058892
1.5351675837918959,1.0007063901943247
1.5488744372186092,1.0080791244202132
1.5625812906453225,1.0145076497033447
1.5762881440720358,1.0195871400451573
1.5899949974987493,1.0243527554010936
1.6037018509254626,1.026790825448638
1.6174087043521759,1.0292063121153836
1.6311155577788894,1.0298921791201496
1.6448224112056027,1.0275149529472518
1.658529264632316,1.0264433812598956
1.6722361180590293,1.022687637207175
1.6859429714857428,1.0177365761639274
1.699649824912456,1.0139158426972004
1.7133566783391694,1.0080403912893066
1.7270635317658827,1.0010536293322791
1.7407703851925962,0.9961281525866172
1.7544772386193095,0.9905081214279134
1.7681840920460228,0.9854749703523563
1.7818909454727363,0.9809341706460485
1.7955977988994496,0.9774285205492593
1.8093046523261629,0.9775722739837174
1.8230115057528762,0.9755393372333208
1.8367183591795897,0.9763657260385371
1.850425212606303,0.9783546834571833
1.8641320660330163,0.9808361774379781
1.8778389194597296,0.9842471761444426
1.891545772886443,0.9903173835106802
1.9052526263131564,0.9956313747169889
1.9189594797398697,0.9994704802814095
1.9326663331665832,1.0042495952676826
1.9463731865932965,1.0074686724595068
1.9600800400200098,1.0133797244931353
1.973786893446723,1.0151596757184518
1.9874937468734366,1.0174038553792588
2.00120060030015,1.0197534333177984
2.014907453726863,1.0177179565831815
2.0286143071535765,1.0172511930975352
2.04232116058029,1.016042130342194
2.0560280140070035,1.0121860978898134
2.069734867433717,1.007995180602183
2.08344172086043,1.004117188980527
2.0971485742871434,1.0001725841232085
2.1108554277138567,0.9957973362184263
2.12456228114057,0.9923074459727812
2.1382691345672833,0.9892513136450384
2.1519759879939966,0.987961036271074
2.1656828414207103,0.9839430434120882
2.1793896948474236,0.98378147028784
2.193096548274137,0.9831930296451282
2.20680340170085,0.9842215423828037
2.2205102551275635,0.9872960712253468
2.234217108554277,0.9889289720255028
2.24792396198099,0.9944091220782155
2.261630815407704,0.997344761526686
2.275337668834417,1.0014794648377754
2.2890445222611304,1.0048999028369652
2.3027513756878437,1.0090775564505494
2.316458229114557,1.0123364937879313
2.3301650825412703,1.0154184539249127
2.3438719359679836,1.0158730114612171
2.3575787893946973,1.017755839400754
2.3712856428214106,1.0181677252518755
2.384992496248124,1.0163418699071223
2.3986993496748372,1.0136943074738167
2.4124062031015505,1.0106828326840218
2.426113056528264,1.0077650485030278
2.439819909954977,1.0045165788020798
2.4535267633816904,0.9987153834579516
2.467233616808404,0.994613500450362
2.4809404702351174,0.9907408838868601
2.4946473236618307,0.9855275483333017
2.508354177088544,0.9835408923745375
2.5220610305152573,0.9828539845016996
2.5357678839419706,0.9798652348272721
2.549474737368684,0.9807272367505583
2.5631815907953976,0.9802888311133955
2.576888444222111,0.9824818945151352
2.5905952976488242,0.9868784954505087
2.6043021510755375,0.9883130964964563
2.618009004502251,0.9944232995598549
2.631715857928964,0.998917615850899
2.6454227113556774,1.0021123491279151
2.659129564782391,1.0068036456066591
2.6728364182091044,1.011171139524228
2.6865432716358177,1.0150951422347025
2.700250125062531,1.0174668390544646
2.7139569784892443,1.01961948393948
2.7276638319159576,1.0205217758854637
2.741370685342671,1.0196370595405237
2.755077538769384,1.0189139408338028
2.768784392196098,1.0168774383588828
2.7824912456228112,1.012118253020602
2.7961980990495245,1.0104553872697213
2.809904952476238,1.0041394397386667
2.823611805902951,1.0009815022395598
2.8373186593296644,0.9943720447081228
2.8510255127563777,0.9906431700103494
2.8647323661830915,0.9859635474347062
2.8784392196098048,0.9820569108631135
2.892146073036518,0.9811970871184397
2.9058529264632313,0.978558420484759
2.9195597798899446,0.9781364674775168
2.933266633316658,0.9800510933126458
2.9469734867433712,0.9812598514417215
2.960680340170085,0.9843978432495085
2.9743871935967983,0.9897825001875526
2.9880940470235116,0.9945092452300855
3.001800900450225,0.9987774004051392
3.015507753876938,1.003595887017351
3.0292146073036514,1.007761465664505
3.0429214607303647,1.012834050047253
3.056628314157078,1.0176238614979776
3.0703351675837918,1.0201477812379978
3.084042021010505,1.022119291312848
3.0977488744372184,1.0241096529363667
3.1114557278639317,1.0229251128972352
3.125162581290645,1.0209311137770543
3.1388694347173582,1.01766153854955
3.1525762881440715,1.0147122264549697
3.1662831415707853,1.0091881610572278
3.1799899949974986,1.0047212345064296
3.193696848424212,0.9988583597296316
3.207403701850925,0.9926402124944621
3.2211105552776385,0.9869870216177989
3.2348174087043517,0.9835059662292007
3.248524262131065,0.9796405061779064
3.262231115557779,0.9761347015434739
3.275937968984492,0.9733861569274357
3.2896448224112054,0.9720745614965063
3.3033516758379187,0.9740536246588614
3.317058529264632,0.9757039294742613
3.3307653826913453,0.978771722276467
3.3444722361180586,0.9843689966745616
3.358179089544772,0.9898393286999789
3.3718859429714856,0.9950371124971888
3.385592796398199,1.0016136109128548
3.399299649824912,1.0070489685879451
3.4130065032516255,1.013397440321657
3.4267133566783388,1.0191893767594185
3.440420210105052,1.0224250690928671
3.4541270635317654,1.0273240343259764
3.467833916958479,1.0291512455487406
3.4815407703851924,1.0291441815905469
3.4952476238119057,1.0287291803626581
3.508954477238619,1.0258167051646616
3.5226613306653323,1.0246845883477604
3.5363681840920456,1.0187724741780446
3.550075037518759,1.0115060413705543
3.5637818909454726,1.0090821232346667
3.577488744372186,1.0018554382519818
3.591195597798899,0.994139817068253
3.6049024512256125,0.9884697012198365
3.6186093046523258,0.9837042446857273
3.632316158079039,0.9788787175216604
3.6460230115057524,0.9756338500758116
3.659729864932466,0.9734979344524244
3.6734367183591794,0.970953486364468
3.6871435717858927,0.9704395627099405
3.700850425212606,0.9732510813660606
3.7145572786393193,0.9750143978690231
3.7282641320660326,0.9791445654003762
3.741970985492746,0.9836317619442824
3.755677838919459,0.9891666355000651
3.769384692346173,0.995540488792436
3.783091545772886,1.0009438337084766
3.7967983991995995,1.006692165844579
3.810505252626313,1.0116124379658842
3.824212106053026,1.0159442154370542
3.8379189594797394,1.019256146944827
3.8516258129064527,1.0213825553717477
3.8653326663331664,1.0213934681488719
3.8790395197598797,1.0234955990817693
3.892746373186593,1.0218110228924264
3.9064532266133063,1.0201282977107917
3.9201600800400196,1.0172654100228449
3.933866933466733,1.0129886802306134
3.947573786893446,1.0092046449447725
3.96128064032016,1.0041374694836995
3.974987493746873,1.0010015310148428
3.9886943471735865,0.995737412584446
4.0024012006003,0.9926809245436584
4.016108054027013,0.9901225606556809
4.029814907453726,0.9876123016095204
4.04352176088044,0.9856567478441631
4.057228614307153,0.984531706757447
4.070935467733866,0.9853514181828693
4.08464232116058,0.9871393741960638
4.098349174587293,0.9882398555927964
4.112056028014007,0.9921514212202067
4.12576288144072,0.9952810684407122
4.139469734867434,0.997285434299652
4.153176588294147,1.0015688439103272
4.16688344172086,1.0027785015308828
4.1805902951475735,1.0062184079131133
4.194297148574287,1.0076490302600831
4.208004002001,1.0104065105063667
4.221710855427713,1.0060125093963657
4.235417708854427,1.010242326405715
4.24912456228114,1.009375220107558
4.262831415707853,1.0074448486066057
4.276538269134567,1.0043867926025563
4.29024512256128,1.0015676503057
4.303951975987993,0.9975567769149339
4.317658829414707,0.9961333935732191
4.331365682841421,0.9913274493350555
4.345072536268134,0.9896843633155633
4.358779389694847,0.982902011009108
4.3724862431215605,0.9859211220951168
4.386193096548274,0.9847520344122325
4.399899949974987,0.984739244659524
4.4136068034017,0.9867336418507947
4.427313656828414,0.988105429063952
4.441020510255127,0.9928629892896682
4.45472736368184,0.9962726376060261
4.468434217108554,1.0013246683712533
4.482141070535267,1.004793989008814
4.49584792396198,1.0099028754013828
4.5095547773886935,1.0134727613299
4.523261630815408,1.022431207674973
4.536968484242121,1.0213625772832058
4.550675337668834,1.0238053998839503
4.5643821910955475,1.0241734750996623
4.578089044522261,1.024400742132925
4.591795897948974,1.0242169678510493
4.605502751375687,1.021621991030259
4.619209604802401,1.0183413371659942
4.632916458229114,1.0126666814046155
4.646623311655827,1.0072878809567947
4.660330165082541,1.0017811462467023
4.674037018509254,0.9950272996896447
4.687743871935967,0.9892119211459517
4.7014507253626805,0.982888998180354
4.715157578789395,0.9777915106850907
4.728864432216108,0.9721130195151664
4.742571285642821,0.9711748140336236
4.756278139069535,0.9676626928601437
4.769984992496248,0.9670426590701114
4.783691845922961,0.9678272855818888
4.7973986993496744,0.9690813444859763
4.811105552776388,0.9738743917741342
4.824812406203101,0.9790617686428238
4.838519259629814,0.9836831664286814
4.852226113056528,0.9911707535934069
4.865932966483241,0.9980930126752899
4.879639819909954,1.0048471097250338
4.8933466733366675,1.013326180858902
4.907053526763381,1.0197441651431063
4.920760380190095,1.024473922723178
4.934467233616808,1.0303972493364544
4.948174087043522,1.0342374752823185
4.961880940470235,1.0348006411325053
4.975587793896948,1.0358771140340957
4.9892946473236615,1.0329118780150295
5.003001500750375,1.030502516712974
5.016708354177088,1.0273424463987941
5.030415207603801,1.022120648124557
5.044122061030515,1.0150742726309794
5.057828914457228,1.007723746477471
5.071535767883941,1.001324554403256
5.0852426213106545,0.9938521172100433
5.098949474737368,0.9864791817987958
5.112656328164081,0.9814024113548462
5.126363181590795,0.976806075739668
5.140070035017509,0.972734506471602
5.153776888444222,0.969858506151095
5.167483741870935,0.9689084534038139
5.1811905952976485,0.9697041062656301
5.194897448724362,0.9691698102666584
5.208604302151075,0.9750963782687911
5.222311155577788,0.9772829355852048
5.236018009004502,0.9822253287626688
5.249724862431215,0.9881484943225395
5.263431715857928,0.9931429714210488
5.2771385692846415,0.9990752656725874
5.290845422711355,1.0046448416608038
5.304552276138068,1.0106064812532136
5.318259129564782,1.0140141863466838
5.331965982991496,1.0172151536306724
5.345672836418209,1.021079056101073
5.359379689844922,1.0215501386343133
5.3730865432716355,1.0219917219223122
5.386793396698349,1.0214333210270576
5.400500250125062,1.0180625844107747
5.414207103551775,1.0168933635802475
5.427913956978489,1.0125975730314445
5.441620810405202,1.0098639387038693
5.455327663831915,1.0053028283757615
5.4690345172586285,1.0010907276995236
5.482741370685342,0.9965063918430387
5.496448224112055,0.9929591982278739
5.510155077538768,0.9905295451257408
5.523861930965483,0.9873436545973757
5.537568784392196,0.9889351695546597
5.551275637818909,0.9871372800955037
5.5649824912456225,0.9864512530411852
5.578689344672336,0.9897706867486726
5.592396198099049,0.991630186062674
5.606103051525762,0.9948144198950046
5.619809904952476,0.9972092263942341
5.633516758379189,0.9995367454228785
5.647223611805902,1.0027974289780293
5.660930465232616,1.0066332723337208
5.674637318659329,1.0085574207432353
5.688344172086042,1.0099541393084523
5.7020510255127554,1.0107378136061749
5.71575787893947,1.009904931703648
5.729464732366183,1.0094603348648898
5.743171585792896,1.0075238455227733
5.7568784392196095,1.0059887495004878
5.770585292646323,1.003975833237684
5.784292146073036,0.9990754687837186
5.797998999499749,0.996067340638198
5.811705852926463,0.993271385144091
5.825412706353176,0.9887527723412735
5.839119559779889,0.9871724858678256
5.852826413206603,0.9852606296871277
5.866533266633316,0.9837407526916817
5.880240120060029,0.9834852931114317
5.8939469734867425,0.9847848758128976
5.907653826913456,0.9847756702011532
5.92136068034017,0.9873769255432211
5.935067533766883,0.9915852213746005
5.9487743871935965,0.995796488438378
5.96248124062031,0.999569481986192
5.976188094047023,1.004179429894198
5.989894947473736,1.007987027752213
6.00360180090045,1.0128205469004017
6.017308654327163,1.0176747068065741
6.031015507753876,1.019932576493319
6.04472236118059,1.0211450543683687
6.058429214607303,1.0245071947512319
6.072136068034016,1.023747624026516
6.0858429214607295,1.0241463510880047
6.099549774887443,1.0226594527297705
6.113256628314156,1.0185891743098199
6.12696348174087,1.0129780047282264
6.1406703351675835,1.0082301748153202
6.154377188594297,1.0026573270057217
6.16808404202101,0.9971997165178796
6.181790895447723,0.9917006028711614
6.195497748874437,0.986151406083219
6.20920460230115,0.9808814157512065
6.222911455727863,0.9763092452135756
6.236618309154577,0.9742289988907279
6.25032516258129,0.9715042893529188
6.264032016008003,0.9718308442897369
6.2777388694347165,0.9731386726352651
6.29144572286143,0.974394131647448
6.305152576288143,0.977311542839631
6.318859429714857,0.9829372913149215
6.3325662831415706,0.9869774751038136
6.346273136568284,0.9943029081863939
6.359979989994997,1.0003108270838912
6.37368684342171,1.0051859160923433
6.387393696848424,1.0107054803515843
6.401100550275137,1.0168078333236568
6.41480740370185,1.022291427306414
6.428514257128564,1.0246828052286134
6.442221110555277,1.0278940067597133
6.45592796398199,1.02759165325442
6.4696348174087035,1.0276355605815997
6.483341670835417,1.027794589455722
6.49704852426213,1.0235275152719052
6.510755377688843,1.0196442557269778
6.524462231115558,1.0138575248993178
6.538169084542271,1.0085664276060147
6.551875937968984,1.0023313151442443
6.5655827913956974,0.9957950790911579
6.579289644822411,0.9895213812497208
6.592996498249124,0.9847787303385419
6.606703351675837,0.9809234583705276
6.620410205102551,0.9780804167276297
6.634117058529264,0.9744756944758226
6.647823911955977,0.973099114441419
6.6615307653826905,0.9741000340226865
6.675237618809404,0.9761630010396611
6.688944472236117,0.9794030566531465
6.70265132566283,0.98262433512986
6.716358179089544,0.9879851376647831
6.730065032516258,0.9917623799771762
6.743771885942971,0.998228752551875
6.7574787393696845,1.0047368397001406
6.771185592796398,1.0095520527651554
6.784892446223111,1.0149001278993004
6.798599299649824,1.0180515196072066
6.812306153076538,1.0214326436839865
6.826013006503251,1.0232855360693311
6.839719859929964,1.0243484386608908
6.8534267133566775,1.0227163182310983
6.867133566783391,1.0195748110323744
6.880840420210104,1.0167839964441627
6.894547273636817,1.014253760181071
6.908254127063531,1.0087726918831987
6.921960980490245,1.003859401132707
6.935667833916958,0.9983178584943081
6.9493746873436715,0.9929264040555515
6.963081540770385,0.9897954562197846
6.976788394197098,0.9852143055801295
6.990495247623811,0.9800661561871323
7.004202101050525,0.9794026655477768
7.017908954477238,0.9784314654310295
7.031615807903951,0.9794460093206864
7.0453226613306645,0.9802133914590899
7.059029514757378,0.9817712283149641
7.072736368184091,0.985828258023774
7.086443221610804,0.9888963187964409
7.100150075037518,0.994568535439539
7.113856928464231,0.9987151207348548
7.127563781890945,1.0034775301793548
7.1412706353176585,1.0084802328346096
7.154977488744372,1.0126612942849285
7.168684342171085,1.0149561964839797
7.182391195597798,1.0194623556872784
7.196098049024512,1.0198759947742202
7.209804902451225,1.0218209860962946
7.223511755877938,1.0195469593294282
7.2372186093046516,1.0187842857351601
7.250925462731365,1.0157548271241024
7.264632316158078,1.0119519200512073
7.278339169584791,1.0087657911212178
7.292046023011505,1.004496543455419
7.305752876438218,0.998819749335173
7.319459729864932,0.995597893279848
7.3331665832916455,0.9897870922653197
7.346873436718359,0.9863718563747923
