time,flux
0.0,1.0068952612804574
0.013706853426713355,1.0108346062120228
0.02741370685342671,1.0138252441112694
0.041120560280140064,1.0170796161196436
0.05482741370685342,1.0191831794238195
0.06853426713356678,1.0218339525428464
0.08224112056028013,1.0243248544779264
0.09594797398699349,1.02532679397308
0.10965482741370684,1.0260365102375106
0.1233616808404202,1.0280878168754788
0.13706853426713356,1.028634110890889
0.1507753876938469,1.0288465208799575
0.16448224112056026,1.0272683507462392
0.1781890945472736,1.0281704502632196
0.19189594797398699,1.026167619831778
0.20560280140070034,1.0232888412713594
0.21930965482741369,1.0212694283065336
0.23301650825412704,1.019463745783039
0.2467233616808404,1.0169186799755718
0.26043021510755376,1.0130984868083457
0.2741370685342671,1.0121032037826194
0.28784392196098046,1.0088080222535254
0.3015507753876938,1.0056448249128553
0.31525762881440716,1.0029752027036796
0.3289644822411205,0.9998725650626755
0.34267133566783387,0.9965968552705519
0.3563781890945472,0.9948939227667907
0.3700850425212606,0.9930364046134013
0.38379189594797397,0.9898173260750466
0.3974987493746873,0.9890453468644252
0.41120560280140067,0.9877215545006695
0.424912456228114,0.9870985939069599
0.43861930965482737,0.986986991346042
0.4523261630815407,0.9806326936783425
0.46603301650825407,0.9867754192625515
0.4797398699349674,0.9866938477421332
0.4934467233616808,0.9886321657961574
0.5071535767883941,0.9892232054256
0.5208604302151075,0.990790859050517
0.5345672836418208,0.9931788974682043
0.5482741370685342,0.9955166017304686
0.5619809904952475,0.9976979237661515
0.5756878439219609,1.0001907928584184
0.5893946973486743,1.0031630053617153
0.6031015507753876,1.0055600048938038
0.616808404202101,1.0084286648860976
0.6305152576288143,1.0108961267573437
0.6442221110555277,1.0143613232954831
0.657928964482241,1.0155266307206763
0.6716358179089544,1.0188622133046417
0.6853426713356677,1.0191652015067412
0.6990495247623811,1.0221167028820812
0.7127563781890944,1.0230191326270521
0.7264632316158078,1.0232894036204472
0.7401700850425212,1.0233721064570411
0.7538769384692345,1.0255400162319412
0.7675837918959479,1.0250470706009482
0.7812906453226612,1.0241633436705202
0.7949974987493746,1.0229869038016615
0.8087043521760879,1.02092637428094
0.8224112056028013,1.0203537346441391
0.8361180590295146,1.0173124955055926
0.849824912456228,1.0151373342330616
0.8635317658829413,1.013322242557464
0.8772386193096547,1.009954750009257
0.8909454727363681,1.0084817746599635
0.9046523261630814,1.0057199830212418
0.9183591795897948,1.0011567629533347
0.9320660330165081,0.9993335963337646
0.9457728864432215,0.9964463332911367
0.9594797398699348,0.9922491622166036
0.9731865932966483,0.9908888353129296
0.9868934467233615,0.9876008766252644
1.000600300150075,0.9860382881002998
1.0143071535767882,0.9844432941150589
1.0280140070035018,0.9807406178602187
1.041720860430215,0.9816950882007878
1.0554277138569284,0.9800041973729585
1.0691345672836416,0.9787116227497765
1.0828414207103552,0.9770204925528938
1.0965482741370685,0.977126071205301
1.1102551275637818,0.9765052112333534
1.123961980990495,0.9768907718619991
1.1376688344172086,0.9770661662950458
1.1513756878439219,0.9780608408124167
1.1650825412706352,0.979118008991094
1.1787893946973487,0.9790047949483288
1.192496248124062,0.9815974478875953
1.2062031015507753,0.9832596249074039
1.2199099549774886,0.9862821827927261
1.233616808404202,0.9856382096903058
1.2473236618309154,0.9885021021294752
1.2610305152576287,0.989426501057717
1.274737368684342,0.9899094822867187
1.2884442221110555,0.9926408618413959
1.3021510755377688,0.9939798336068546
1.315857928964482,0.9950721969049894
1.3295647823911956,0.9967717106418679
1.3432716358179089,0.9967597901354225
1.3569784892446222,0.9976757315021914
1.3706853426713355,0.9983600480377852
1.384392196098049,0.9969279108598156
1.3980990495247623,0.9985510880821058
1.4118059029514756,0.9990115104650209
1.4255127563781889,0.9990837796489632
1.4392196098049024,0.9980830362270227
1.4529264632316157,0.9976732311317685
1.466633316658329,0.997541455401069
1.4803401700850425,0.9977949272671911
1.4940470235117558,0.9969562485021036
1.507753876938469,0.9952556792353842
1.5214607303651824,0.9932486671258148
1.5351675837918959,0.9953467570522779
1.5488744372186092,0.9948093071809265
1.5625812906453225,0.9944435801903577
1.5762881440720358,0.9945126087371168
1.5899949974987493,0.994388548160481
1.6037018509254626,0.9933247307124883
1.6174087043521759,0.9952243223136584
1.6311155577788894,0.9952216644642612
1.6448224112056027,0.9940078063401873
1.658529264632316,0.9951724190318805
1.6722361180590293,0.9950934871932376
1.6859429714857428,0.9983738899779503
1.699649824912456,0.9991609835599364
1.7133566783391694,1.0005895924362724
1.7270635317658827,1.0011588847964519
1.7407703851925962,1.0027637562763034
1.7544772386193095,1.0050503959222703
1.7681840920460228,1.0063729490658697
1.7818909454727363,1.0069029788353494
1.7955977988994496,1.0072305703931488
1.8093046523261629,1.0112386537679148
1.8230115057528762,1.0101666552481232
1.8367183591795897,1.0118562258116472
1.850425212606303,1.0114010879674882
1.8641320660330163,1.012797073497927
1.8778389194597296,1.0153939070934304
1.891545772886443,1.0134414108456058
1.9052526263131564,1.0158043988768608
1.9189594797398697,1.0144381195372258
1.9326663331665832,1.0137538649038527
1.9463731865932965,1.0127846543419634
1.9600800400200098,1.0135478854830597
1.973786893446723,1.0127613570928415
1.9874937468734366,1.0113490870929227
2.00120060030015,1.0094052541778675
2.014907453726863,1.008825101960994
2.0286143071535765,1.0076821667674745
2.04232116058029,1.006132502869823
2.0560280140070035,1.0035245830851762
2.069734867433717,1.0022444801198296
2.08344172086043,1.0009061634049208
2.0971485742871434,1.000242132787744
2.1108554277138567,1.0001376192161686
2.12456228114057,0.9977151404574512
2.1382691345672833,0.9984043881947765
2.1519759879939966,0.995476999537635
2.1656828414207103,0.9960186649953555
2.1793896948474236,0.9959590510564951
2.193096548274137,0.9960225875976729
2.20680340170085,0.99671413880794
2.2205102551275635,0.9969542993411885
2.234217108554277,0.9973861771766521
2.24792396198099,0.9989314723296839
2.261630815407704,0.999776236844284
2.275337668834417,1.001458347019031
2.2890445222611304,1.0043080692361317
2.3027513756878437,1.0052089143035292
2.316458229114557,1.005824771669307
2.3301650825412703,1.0085305671644402
2.3438719359679836,1.0108735382304095
2.3575787893946973,1.0119001693774463
2.3712856428214106,1.0137367544411324
2.384992496248124,1.0151507979842318
2.3986993496748372,1.0173482222807981
2.4124062031015505,1.0177209151233346
2.426113056528264,1.018465178664733
2.439819909954977,1.0191449060468862
2.4535267633816904,1.0207568031171148
2.467233616808404,1.0197171109475744
2.4809404702351174,1.0206306441995472
2.4946473236618307,1.0193610283056223
2.508354177088544,1.019696613381201
2.5220610305152573,1.0177210143469178
2.5357678839419706,1.0162538746137084
2.549474737368684,1.0139129012871804
2.5631815907953976,1.0116953206133694
2.576888444222111,1.0095034933147238
2.5905952976488242,1.0057939617733522
2.6043021510755375,1.003371027843845
2.618009004502251,1.0005042283867926
2.631715857928964,0.9965192323767471
2.6454227113556774,0.9940562336446207
2.659129564782391,0.9894868461772521
2.6728364182091044,0.9865334099935287
2.6865432716358177,0.9844742945050577
2.700250125062531,0.9781184827546051
2.7139569784892443,0.9774882715512592
2.7276638319159576,0.9739656033012125
2.741370685342671,0.971913270468154
2.755077538769384,0.9707395713182045
2.768784392196098,0.9690043174970826
2.7824912456228112,0.9685665484802919
2.7961980990495245,0.9668555642062825
2.809904952476238,0.966977293735667
2.823611805902951,0.9660424566244329
2.8373186593296644,0.9673126394403525
2.8510255127563777,0.9673863907370673
2.8647323661830915,0.968941057885771
2.8784392196098048,0.9704736619557291
2.892146073036518,0.9729996542989081
2.9058529264632313,0.9745070075371931
2.9195597798899446,0.9777146399655912
2.933266633316658,0.9816162738248877
2.9469734867433712,0.9851942675249021
2.960680340170085,0.9875064931176751
2.9743871935967983,0.9918827226964821
2.9880940470235116,0.9942087847021038
3.001800900450225,0.9969945226702638
3.015507753876938,1.0015657148393964
3.0292146073036514,1.003441753301201
3.0429214607303647,1.007347492920848
3.056628314157078,1.0102725375334851
3.0703351675837918,1.0123555934229933
3.084042021010505,1.0133627297416912
3.0977488744372184,1.0164732191942742
3.1114557278639317,1.0160279011322937
3.125162581290645,1.0180020825512206
3.1388694347173582,1.0187277873264964
3.1525762881440715,1.0180709039027371
3.1662831415707853,1.019679710864358
3.1799899949974986,1.0180785581318479
3.193696848424212,1.0174683702186655
3.207403701850925,1.0156579146309785
3.2211105552776385,1.0133915998887932
3.2348174087043517,1.0111746076667218
3.248524262131065,1.0099063977700014
3.262231115557779,1.0063421047777565
3.275937968984492,1.0037015684027746
3.2896448224112054,1.002121020232183
3.3033516758379187,0.9994984778134719
3.317058529264632,0.9963305033512974
3.3307653826913453,0.9949555266655827
3.3444722361180586,0.9908460150493399
3.358179089544772,0.990503172022637
3.3718859429714856,0.987796633601507
3.385592796398199,0.9853502447835346
3.399299649824912,0.9865104568891282
3.4130065032516255,0.984326785238022
3.4267133566783388,0.9843743547142126
3.440420210105052,0.9835653670579648
3.4541270635317654,0.9831070594589827
3.467833916958479,0.9832143547825687
3.4815407703851924,0.9850168546145586
3.4952476238119057,0.9874458361071338
3.508954477238619,0.9869067231699776
3.5226613306653323,0.9900925328687747
3.5363681840920456,0.991521729275618
3.550075037518759,0.993848050543719
3.5637818909454726,0.9960773702066952
3.577488744372186,0.9992544614442586
3.591195597798899,1.0015409605370975
3.6049024512256125,1.0040586566196006
3.6186093046523258,1.0085061263661184
3.632316158079039,1.011354335084058
3.6460230115057524,1.0143587132474312
3.659729864932466,1.017289772725395
3.6734367183591794,1.018934955872114
3.6871435717858927,1.02076971237333
3.700850425212606,1.0229924157930033
3.7145572786393193,1.0244817302049802
3.7282641320660326,1.02505325666362
3.741970985492746,1.0261686109059174
3.755677838919459,1.0270298469663939
3.769384692346173,1.0262346170414518
3.783091545772886,1.0269830107687585
3.7967983991995995,1.0262824382255316
3.810505252626313,1.0260258140026954
3.824212106053026,1.02520972843812
3.8379189594797394,1.024206341644855
3.8516258129064527,1.0209960659093054
3.8653326663331664,1.019918978920555
3.8790395197598797,1.0183368901694922
3.892746373186593,1.0153198723214338
3.9064532266133063,1.0128806098768717
3.9201600800400196,1.011115821616406
3.933866933466733,1.0089918102745778
3.947573786893446,1.006907608664747
3.96128064032016,1.0038646678911942
3.974987493746873,1.0019422972457932
3.9886943471735865,1.0001453917639302
4.0024012006003,0.9982731328326218
4.016108054027013,0.9953624091226413
4.029814907453726,0.9949488701136934
4.04352176088044,0.9928609236126755
4.057228614307153,0.9924522537745332
4.070935467733866,0.9921468331608719
4.08464232116058,0.9913725720391595
4.098349174587293,0.9900327788897135
4.112056028014007,0.9901438171602137
4.12576288144072,0.9907625808073306
4.139469734867434,0.9898823023585677
4.153176588294147,0.9885033064526669
4.16688344172086,0.9909907357484083
4.1805902951475735,0.991637439362944
4.194297148574287,0.9921755853671343
4.208004002001,0.9934922824301375
4.221710855427713,0.9936245310515003
4.235417708854427,0.9935273944884032
4.24912456228114,0.9939712386917812
4.262831415707853,0.9949208376755138
4.276538269134567,0.9964873725539068
4.29024512256128,0.9957778900083846
4.303951975987993,0.9960338768651673
4.317658829414707,0.9955992595764473
4.331365682841421,0.9956364781553592
4.345072536268134,0.9961425145285088
4.358779389694847,0.9971847319395101
4.3724862431215605,0.9959579372811833
4.386193096548274,0.9946975074783797
4.399899949974987,0.9943047121153905
4.4136068034017,0.9943039297292446
4.427313656828414,0.9928142732021055
4.441020510255127,0.9918876582014629
4.45472736368184,0.9909569189934917
4.468434217108554,0.9902580317504179
4.482141070535267,0.988783032133879
4.49584792396198,0.9881165046053938
4.5095547773886935,0.9871362763737277
4.523261630815408,0.9871830048957511
4.536968484242121,0.986840033818282
4.550675337668834,0.9844833089888821
4.5643821910955475,0.9847012303092062
4.578089044522261,0.9849000817201495
4.591795897948974,0.9849906670510352
4.605502751375687,0.9865058306724013
4.619209604802401,0.9855123823965036
4.632916458229114,0.9872511612344937
4.646623311655827,0.9871980460734793
4.660330165082541,0.9892862273970966
4.674037018509254,0.9906155419183584
4.687743871935967,0.991259392452607
4.7014507253626805,0.9925493848944557
4.715157578789395,0.9949761451875239
4.728864432216108,0.9948991609470146
4.742571285642821,0.9973705022056022
4.756278139069535,0.9998443413144834
4.769984992496248,0.9966610753344567
4.783691845922961,1.0014436141900818
4.7973986993496744,1.0051201947312927
4.811105552776388,1.005360540342623
4.824812406203101,1.005971270342862
4.838519259629814,1.0065930514283654
4.852226113056528,1.0081582050878548
4.865932966483241,1.0100101653576905
4.879639819909954,1.0096826492386537
4.8933466733366675,1.0090827043808395
4.907053526763381,1.0096232226272128
4.920760380190095,1.0073935791555966
4.934467233616808,1.0082872771900606
4.948174087043522,1.0057380559674103
4.961880940470235,1.0070375483064238
4.975587793896948,1.004979505781148
4.9892946473236615,1.003813457284112
5.003001500750375,1.0026645009989101
5.016708354177088,1.0009890704282522
5.030415207603801,0.9996139939488204
5.044122061030515,0.9982427352218334
5.057828914457228,0.997331484065213
5.071535767883941,0.9960846091126863
5.0852426213106545,0.9927878892021923
5.098949474737368,0.993239586852108
5.112656328164081,0.9916021555400814
5.126363181590795,0.9913694516216341
5.140070035017509,0.9902946120802157
5.153776888444222,0.990087528816271
5.167483741870935,0.9901022835206155
5.1811905952976485,0.9910338533553595
5.194897448724362,0.992008913361127
5.208604302151075,0.9922690401643257
5.222311155577788,0.9930533042677292
5.236018009004502,0.9952618249013367
5.249724862431215,0.9970276109614047
5.263431715857928,0.9989649893353462
5.2771385692846415,1.0011866197795651
5.290845422711355,1.003455758433122
5.304552276138068,1.00686579766595
5.318259129564782,1.0092358766290668
5.331965982991496,1.0123061268364721
5.345672836418209,1.0143429319732065
5.359379689844922,1.0176776760554775
5.3730865432716355,1.020404998952964
5.386793396698349,1.0226546468281295
5.400500250125062,1.0249609647819709
5.414207103551775,1.0262633428763999
5.427913956978489,1.0285587763356863
5.441620810405202,1.0298385143926263
5.455327663831915,1.031391672489202
5.4690345172586285,1.0302374375989054
5.482741370685342,1.032473765413781
5.496448224112055,1.0306873152035958
5.510155077538768,1.0298301126209095
5.523861930965483,1.0304051810071373
5.537568784392196,1.0270724848449917
5.551275637818909,1.026025558613593
5.5649824912456225,1.0253451072816866
5.578689344672336,1.0213359695041286
5.592396198099049,1.0175918021720507
5.606103051525762,1.0155347811526114
5.619809904952476,1.012382501758556
5.633516758379189,1.0087079426216439
5.647223611805902,1.0062718865203715
5.660930465232616,1.0012012725306256
5.674637318659329,0.9975194318978305
5.688344172086042,0.9952608468469976
5.7020510255127554,0.9918960910728918
5.71575787893947,0.9875054901527826
5.729464732366183,0.9845324655806141
5.743171585792896,0.9815350147941128
5.7568784392196095,0.978789943004302
5.770585292646323,0.9760298008907952
5.784292146073036,0.9748195736979502
5.797998999499749,0.9744202337312116
5.811705852926463,0.9732820682672157
5.825412706353176,0.9716771422165326
5.839119559779889,0.9728887309085797
5.852826413206603,0.9727256128876112
5.866533266633316,0.972754314863428
5.880240120060029,0.974998839419591
5.8939469734867425,0.9757760688175153
5.907653826913456,0.9761875265574284
5.92136068034017,0.9810109234225867
5.935067533766883,0.9820555112844762
5.9487743871935965,0.9851949952998293
5.96248124062031,0.9871485147150385
5.976188094047023,0.9895141914732662
5.989894947473736,0.9927689853572568
6.00360180090045,0.9962046649244963
6.017308654327163,0.9993693929264135
6.031015507753876,1.0022893561594355
6.04472236118059,1.002888859299905
6.058429214607303,1.0065548320809814
6.072136068034016,1.0082025730402229
6.0858429214607295,1.0103954567410536
6.099549774887443,1.010909829521947
6.113256628314156,1.0127771184356684
6.12696348174087,1.0124919184249788
6.1406703351675835,1.0147720333071344
6.154377188594297,1.0130444546687905
6.16808404202101,1.0125470678783108
6.181790895447723,1.0103917626208225
6.195497748874437,1.0102181139232518
6.20920460230115,1.009466967170662
6.222911455727863,1.0067274788984772
6.236618309154577,1.0047287159039635
6.25032516258129,1.0040751724800252
6.264032016008003,1.0009771214046999
6.2777388694347165,0.9981954569003281
6.29144572286143,0.9958289849283615
6.305152576288143,0.9931450413464439
6.318859429714857,0.990724790157828
6.3325662831415706,0.9881638274915392
6.346273136568284,0.9862766662534557
6.359979989994997,0.9829615907311786
6.37368684342171,0.979804286158329
6.387393696848424,0.9782199328434367
6.401100550275137,0.9780029428877055
6.41480740370185,0.9766618707560921
6.428514257128564,0.9773313930539197
6.442221110555277,0.9757463318922558
6.45592796398199,0.9774349253370903
6.4696348174087035,0.9769271036103058
6.483341670835417,0.9775939930600082
6.49704852426213,0.9803814204247048
6.510755377688843,0.980857956855962
6.524462231115558,0.9827719606010481
6.538169084542271,0.9843529319638524
6.551875937968984,0.9864150615278329
6.5655827913956974,0.9897379529059923
6.579289644822411,0.9928995986126836
6.592996498249124,0.9934701501062554
6.606703351675837,0.9982177774197428
6.620410205102551,1.0005208619770876
6.634117058529264,1.0031729679842998
6.647823911955977,1.0052653844947947
6.6615307653826905,1.0070464616140737
6.675237618809404,1.0099174428796442
6.688944472236117,1.0128444052752597
6.70265132566283,1.014987113766493
6.716358179089544,1.0159993495605526
6.730065032516258,1.0179725506891946
6.743771885942971,1.0194409978089056
6.7574787393696845,1.0186950190289739
6.771185592796398,1.019997559578037
6.784892446223111,1.020402232503256
6.798599299649824,1.0210691018499836
6.812306153076538,1.0211342169619786
6.826013006503251,1.021005451281802
6.839719859929964,1.0195728630054877
6.8534267133566775,1.0203108787772335
6.867133566783391,1.0187854249878405
6.880840420210104,1.0163583699925982
6.894547273636817,1.0159260729860566
6.908254127063531,1.0142315199130818
6.921960980490245,1.013948591203706
6.935667833916958,1.0116075796339077
6.9493746873436715,1.0101196027387553
6.963081540770385,1.0091518299645272
6.976788394197098,1.0095969960627111
6.990495247623811,1.007419927307737
7.004202101050525,1.0052226056593314
7.017908954477238,1.0051611236446638
7.031615807903951,1.0041590699224132
7.0453226613306645,1.0026515268111844
7.059029514757378,1.003653941005227
7.072736368184091,1.0039126548240833
7.086443221610804,1.0021303187385577
7.100150075037518,1.0025736896266526
7.113856928464231,1.0032927506216722
7.127563781890945,1.0032473062769924
7.1412706353176585,1.0036044829941728
7.154977488744372,1.0041386115143214
7.168684342171085,1.0047085970082437
7.182391195597798,1.0061725255811746
7.196098049024512,1.0070308975176983
7.209804902451225,1.0068330893240407
7.223511755877938,1.005163020802615
7.2372186093046516,1.0079253961297496
7.250925462731365,1.0072672148153154
7.264632316158078,1.008127876204857
7.278339169584791,1.007244942563867
7.292046023011505,1.0066147937640804
7.305752876438218,1.005925138321105
7.319459729864932,1.0060184791929516
7.3331665832916455,1.0049394742486466
7.346873436718359,1.0038005168260093
