time,flux
0.0,1.0059359412127806
0.013706853426713355,1.007612226655255
0.02741370685342671,1.011990082616101
0.041120560280140064,1.0143342920566758
0.05482741370685342,1.0171994958679362
0.06853426713356678,1.019806667805624
0.08224112056028013,1.0215833403736678
0.09594797398699349,1.0236482838643002
0.10965482741370684,1.0248258509329302
0.1233616808404202,1.0239194333917407
0.13706853426713356,1.0239292597377099
0.1507753876938469,1.0239250784186689
0.16448224112056026,1.021591492054981
0.1781890945472736,1.019502100641044
0.19189594797398699,1.018205199291934
0.20560280140070034,1.0158907062427778
0.21930965482741369,1.0129068122810256
0.23301650825412704,1.0085225998904763
0.2467233616808404,1.006522295334742
0.26043021510755376,1.0024013895907449
0.2741370685342671,0.9981331632213565
0.28784392196098046,0.9955928444980426
0.3015507753876938,0.9914057953822879
0.31525762881440716,0.9878182261394356
0.3289644822411205,0.9845131885237377
0.34267133566783387,0.9805027839436946
0.3563781890945472,0.9782414117289505
0.3700850425212606,0.9760592298892367
0.38379189594797397,0.972980826158894
0.3974987493746873,0.9706113988058164
0.41120560280140067,0.9702183338594081
0.424912456228114,0.9689458704325796
0.43861930965482737,0.9685997213932867
0.4523261630815407,0.9692648382478831
0.46603301650825407,0.970005062482859
0.4797398699349674,0.9717516748444807
0.4934467233616808,0.9736097239061966
0.5071535767883941,0.97635068270179
0.5208604302151075,0.97825755134614
0.5345672836418208,0.9817208687863007
0.5482741370685342,0.9855651021215626
0.5619809904952475,0.98843148160547
0.5756878439219609,0.9926852260966587
0.5893946973486743,0.9963295586423064
0.6031015507753876,1.0008785467016552
0.616808404202101,1.0036140485292602
0.6305152576288143,1.0085647097074628
0.6442221110555277,1.0128485180246738
0.657928964482241,1.016411047978941
0.6716358179089544,1.0207037780440567
0.6853426713356677,1.0229805445944915
0.6990495247623811,1.025887706761347
0.7127563781890944,1.0286311797886256
0.7264632316158078,1.0286451613073233
0.7401700850425212,1.0308584057133743
0.7538769384692345,1.0311489961138771
0.7675837918959479,1.0322532496559502
0.7812906453226612,1.0322773183636627
0.7949974987493746,1.0303492677498485
0.8087043521760879,1.0282440911158084
0.8224112056028013,1.028154849320361
0.8361180590295146,1.0247007784943551
0.849824912456228,1.0233816216724019
0.8635317658829413,1.0176791401645613
0.8772386193096547,1.0152174056769814
0.8909454727363681,1.0124524559910202
0.9046523261630814,1.0080862345088613
0.9183591795897948,1.0047354881434827
0.9320660330165081,1.0002510731791583
0.9457728864432215,0.9962256515995317
0.9594797398699348,0.9942567776077784
0.9731865932966483,0.9892129709922645
0.9868934467233615,0.9871040980628278
1.000600300150075,0.9837276557787029
1.0143071535767882,0.9808549879611745
1.0280140070035018,0.9780598975264393
1.041720860430215,0.9771020429292626
1.0554277138569284,0.9776899265223215
1.0691345672836416,0.9760331418050227
1.0828414207103552,0.9762488332710075
1.0965482741370685,0.9767229593719943
1.1102551275637818,0.9779880219418687
1.123961980990495,0.9787131335087945
1.1376688344172086,0.9804061481608238
1.1513756878439219,0.9834226120772931
1.1650825412706352,0.9864078433672577
1.1787893946973487,0.9883760221995354
1.192496248124062,0.9929948695660324
1.2062031015507753,0.9959819897375333
1.2199099549774886,1.0002398414034863
1.233616808404202,1.0026699112080761
1.2473236618309154,1.0072217862348367
1.2610305152576287,1.0120458782450172
1.274737368684342,1.0151826605567285
1.2884442221110555,1.0193494172484354
1.3021510755377688,1.020953728253749
1.315857928964482,1.025759506227795
1.3295647823911956,1.0275470422387951
1.3432716358179089,1.0303224689328716
1.3569784892446222,1.0306613443918464
1.3706853426713355,1.032337900998854
1.384392196098049,1.032428920247298
1.3980990495247623,1.0327100636167197
1.4118059029514756,1.0327660556760303
1.4255127563781889,1.0311736736332842
1.4392196098049024,1.029371334243571
1.4529264632316157,1.0275553083785756
1.466633316658329,1.0262386174214715
1.4803401700850425,1.0219390124906462
1.4940470235117558,1.0189680291040222
1.507753876938469,1.0159661624638199
1.5214607303651824,1.0116194085104255
1.5351675837918959,1.0078547663611774
1.5488744372186092,1.0039349424479889
1.5625812906453225,1.000249113567038
1.5762881440720358,0.9953387829832663
1.5899949974987493,0.9914533634768753
1.6037018509254626,0.9873969908363324
1.6174087043521759,0.9848009651329348
1.6311155577788894,0.9810378490603521
1.6448224112056027,0.978085337495839
1.658529264632316,0.9750604971957307
1.6722361180590293,0.9728953368980219
1.6859429714857428,0.9718095958583898
1.699649824912456,0.9712639284471739
1.7133566783391694,0.9691322592492303
1.7270635317658827,0.9709575324209424
1.7407703851925962,0.9709537682142008
1.7544772386193095,0.9729053378402454
1.7681840920460228,0.9738975735621714
1.7818909454727363,0.975608206773031
1.7955977988994496,0.9778207348568094
1.8093046523261629,0.9814418997863006
1.8230115057528762,0.9835136226329787
1.8367183591795897,0.9873900731389142
1.850425212606303,0.9912390232318705
1.8641320660330163,0.9940160639505937
1.8778389194597296,0.9975010756841971
1.891545772886443,1.0018332038098983
1.9052526263131564,1.006249106374494
1.9189594797398697,1.0095119438863707
1.9326663331665832,1.012970729592451
1.9463731865932965,1.015783709761129
1.9600800400200098,1.0183975604384923
1.973786893446723,1.0209603666926939
1.9874937468734366,1.0227986073410462
2.00120060030015,1.0241528515806282
2.014907453726863,1.0249385807885516
2.0286143071535765,1.024671707523904
2.04232116058029,1.024921376061994
2.0560280140070035,1.0230914116723222
2.069734867433717,1.0228082634570905
2.08344172086043,1.0201164204445512
2.0971485742871434,1.0191412442945778
2.1108554277138567,1.0161416804104757
2.12456228114057,1.0122039983801454
2.1382691345672833,1.010287170614306
2.1519759879939966,1.0058437221599876
2.1656828414207103,1.0038004970090963
2.1793896948474236,0.9987311767030271
2.193096548274137,0.9942001551405233
2.20680340170085,0.989513926680515
2.2205102551275635,0.9871062450626318
2.234217108554277,0.9834643236637739
2.24792396198099,0.9810107210172377
2.261630815407704,0.9760358218535866
2.275337668834417,0.9743299991345706
2.2890445222611304,0.9706230311444527
2.3027513756878437,0.9695821190138055
2.316458229114557,0.9677486373051595
2.3301650825412703,0.9653204114430146
2.3438719359679836,0.9662483207574786
2.3575787893946973,0.9670482444041544
2.3712856428214106,0.967282029723288
2.384992496248124,0.9687044253050268
2.3986993496748372,0.9700478880327547
2.4124062031015505,0.9713603076292769
2.426113056528264,0.9752328795366555
2.439819909954977,0.977549087571587
2.4535267633816904,0.9810696582241517
2.467233616808404,0.9848941883444953
2.4809404702351174,0.9887957471508361
2.4946473236618307,0.9927728157767454
2.508354177088544,0.997147231218865
2.5220610305152573,1.0002308701638691
2.5357678839419706,1.0048280936165739
2.549474737368684,1.0090885437317478
2.5631815907953976,1.0120962330378342
2.576888444222111,1.0160416648270367
2.5905952976488242,1.0171120802900688
2.6043021510755375,1.0215328056989226
2.618009004502251,1.0229640513265408
2.631715857928964,1.024976531776543
2.6454227113556774,1.0262227458416167
2.659129564782391,1.0281092797734683
2.6728364182091044,1.0291666959494428
2.6865432716358177,1.0276849494338607
2.700250125062531,1.0271849151354229
2.7139569784892443,1.026642758598728
2.7276638319159576,1.024007600948763
2.741370685342671,1.02139883574003
2.755077538769384,1.0196595707831515
2.768784392196098,1.0166152396453416
2.7824912456228112,1.0133385004978315
2.7961980990495245,1.010179456114673
2.809904952476238,1.0046482094899936
2.823611805902951,1.0009928585462204
2.8373186593296644,0.9981089474936039
2.8510255127563777,0.9952012304713479
2.8647323661830915,0.991332878168751
2.8784392196098048,0.9878524962022481
2.892146073036518,0.9849578797663403
2.9058529264632313,0.98201829861124
2.9195597798899446,0.9794264887779277
2.933266633316658,0.9766403218181866
2.9469734867433712,0.9756258107384886
2.960680340170085,0.9757688645184801
2.9743871935967983,0.9735350516229055
2.9880940470235116,0.9741813400699297
3.001800900450225,0.9758265495584585
3.015507753876938,0.9751188952253063
3.0292146073036514,0.9765966555644463
3.0429214607303647,0.9789017185323518
3.056628314157078,0.9823478713783952
3.0703351675837918,0.9848627229901126
3.084042021010505,0.9875911073497089
3.0977488744372184,0.9908839486749135
3.1114557278639317,0.9944208253269726
3.125162581290645,0.9986321849053631
3.1388694347173582,1.0024883078541609
3.1525762881440715,1.0066468477051593
3.1662831415707853,1.0119395313073256
3.1799899949974986,1.0150692844412428
3.193696848424212,1.0170886523080849
3.207403701850925,1.0225722831332742
3.2211105552776385,1.025844635307908
3.2348174087043517,1.028937000615183
3.248524262131065,1.0305030751216577
3.262231115557779,1.0313797715376736
3.275937968984492,1.0330650655760014
3.2896448224112054,1.032948005493628
3.3033516758379187,1.034409596600786
3.317058529264632,1.0335861174360375
3.3307653826913453,1.0319537071482752
3.3444722361180586,1.033113832609066
3.358179089544772,1.0301071151119554
3.3718859429714856,1.02714051377212
3.385592796398199,1.0247192661568412
3.399299649824912,1.0216267049023378
3.4130065032516255,1.0186698247990826
3.4267133566783388,1.0151210324416091
3.440420210105052,1.0107857409201089
3.4541270635317654,1.0075530547198595
3.467833916958479,1.0031142061076896
3.4815407703851924,0.9988691605601763
3.4952476238119057,0.9936750400302105
3.508954477238619,0.9914989216454733
3.5226613306653323,0.9884560687791343
3.5363681840920456,0.9839229513077913
3.550075037518759,0.9824271998974041
3.5637818909454726,0.97886007986765
3.577488744372186,0.977273091963234
3.591195597798899,0.9743605431280201
3.6049024512256125,0.9739548633934515
3.6186093046523258,0.973404133947512
3.632316158079039,0.9738081518739184
3.6460230115057524,0.9741385291018149
3.659729864932466,0.9742316881243278
3.6734367183591794,0.9755677764086582
3.6871435717858927,0.9786264181945082
3.700850425212606,0.9810864226969852
3.7145572786393193,0.9837295249596352
3.7282641320660326,0.9874868354736936
3.741970985492746,0.9913082902189904
3.755677838919459,0.9942983155798985
3.769384692346173,0.9970035335021465
3.783091545772886,1.0008807684836478
3.7967983991995995,1.0041888128423475
3.810505252626313,1.0093394217337883
3.824212106053026,1.011881170613008
3.8379189594797394,1.0146305016390627
3.8516258129064527,1.018724872599365
3.8653326663331664,1.0208149509651383
3.8790395197598797,1.023365399150213
3.892746373186593,1.0248021194102976
3.9064532266133063,1.026674671406918
3.9201600800400196,1.0277234153732753
3.933866933466733,1.0269053316359362
3.947573786893446,1.0279599563507988
3.96128064032016,1.0265020303199541
3.974987493746873,1.0255989361406255
3.9886943471735865,1.0228989014762448
4.0024012006003,1.0210984530642881
4.016108054027013,1.0191958547181792
4.029814907453726,1.0163726963938613
4.04352176088044,1.0132149318098829
4.057228614307153,1.0073242252993635
4.070935467733866,1.004193977810149
4.08464232116058,1.0016387183706723
4.098349174587293,0.9963433895339301
4.112056028014007,0.9929023045779849
4.12576288144072,0.9883721650599815
4.139469734867434,0.9839976725087668
4.153176588294147,0.9809079860599511
4.16688344172086,0.977548008472265
4.1805902951475735,0.9746159446034691
4.194297148574287,0.9727923139888327
4.208004002001,0.9695478336414978
4.221710855427713,0.9681672202968875
4.235417708854427,0.9671951497555121
4.24912456228114,0.9656548533393551
4.262831415707853,0.9671259806179319
4.276538269134567,0.9668248540752133
4.29024512256128,0.9667016595091025
4.303951975987993,0.9686491840724428
4.317658829414707,0.9709264575619134
4.331365682841421,0.973218281653552
4.345072536268134,0.9769531031307813
4.358779389694847,0.9793217811478898
4.3724862431215605,0.9769540209520231
4.386193096548274,0.9863692160468093
4.399899949974987,0.990649943004952
4.4136068034017,0.9934182395713986
4.427313656828414,0.997829478079317
4.441020510255127,1.0018180152523675
4.45472736368184,1.0052746286222805
4.468434217108554,1.0096704802538712
4.482141070535267,1.012987707183693
4.49584792396198,1.016168838267335
4.5095547773886935,1.0191313756222453
4.523261630815408,1.0204409244012451
4.536968484242121,1.0226595307176083
4.550675337668834,1.0238334288542994
4.5643821910955475,1.0249299483341772
4.578089044522261,1.025423483060285
4.591795897948974,1.024731832775985
4.605502751375687,1.0245482489139761
4.619209604802401,1.0223368591390305
4.632916458229114,1.0214618587270043
4.646623311655827,1.0187840312899052
4.660330165082541,1.0163661198891873
4.674037018509254,1.0131558332613817
4.687743871935967,1.009511364519795
4.7014507253626805,1.007436943842075
4.715157578789395,1.0033262674163559
4.728864432216108,0.9991991514023316
4.742571285642821,0.9951000374932482
4.756278139069535,0.9912470373183374
4.769984992496248,0.9879367505148019
4.783691845922961,0.9848899415633084
4.7973986993496744,0.982099452947757
4.811105552776388,0.9781665298151758
4.824812406203101,0.977018957836947
4.838519259629814,0.9737307121732498
4.852226113056528,0.972309688260214
4.865932966483241,0.9709395831066825
4.879639819909954,0.9705499889588962
4.8933466733366675,0.9711802966979004
4.907053526763381,0.970789861049569
4.920760380190095,0.9720787916009705
4.934467233616808,0.9745381470637504
4.948174087043522,0.976270494593203
4.961880940470235,0.978119920857666
4.975587793896948,0.9808577115822937
4.9892946473236615,0.9858678920049453
5.003001500750375,0.9888742971639152
5.016708354177088,0.9920795185102581
5.030415207603801,0.9956187411725812
5.044122061030515,1.0005868877859734
5.057828914457228,1.0031119796493526
5.071535767883941,1.0073746425449652
5.0852426213106545,1.0114749009806778
5.098949474737368,1.0159863855821147
5.112656328164081,1.020388325768961
5.126363181590795,1.0221625277345774
5.140070035017509,1.025512026920172
5.153776888444222,1.0264565664709708
5.167483741870935,1.0301909789789003
5.1811905952976485,1.0314548850512661
5.194897448724362,1.0330143977332742
5.208604302151075,1.0329433601412596
5.222311155577788,1.0329501211101324
5.236018009004502,1.0322834294662528
5.249724862431215,1.0325598466353179
5.263431715857928,1.0307167551654939
5.2771385692846415,1.0286145208603237
5.290845422711355,1.025430877191285
5.304552276138068,1.0221599189590982
5.318259129564782,1.020350816784706
5.331965982991496,1.015423424865781
5.345672836418209,1.0114375607236674
5.359379689844922,1.0091739567619946
5.3730865432716355,1.004129066904121
5.386793396698349,1.0007329230932367
5.400500250125062,0.9967109740432728
5.414207103551775,0.9917235109587754
5.427913956978489,0.989207141447178
5.441620810405202,0.9879234049530532
5.455327663831915,0.982825824663923
5.4690345172586285,0.9802111650717023
5.482741370685342,0.9793057479236607
5.496448224112055,0.9776957294268572
5.510155077538768,0.9756621169555918
5.523861930965483,0.9745631914821479
5.537568784392196,0.9746423048827646
5.551275637818909,0.975240748231085
5.5649824912456225,0.9779514500137304
5.578689344672336,0.9793869400120033
5.592396198099049,0.9807974807422616
5.606103051525762,0.982418049196377
5.619809904952476,0.9851474856513381
5.633516758379189,0.9893586508787071
5.647223611805902,0.992362652895807
5.660930465232616,0.9966734299342256
5.674637318659329,0.9987564087693165
5.688344172086042,1.0035762649630788
5.7020510255127554,1.0072470555403037
5.71575787893947,1.012534064419428
5.729464732366183,1.0145200840064974
5.743171585792896,1.0173668966418203
5.7568784392196095,1.021603173669842
5.770585292646323,1.0244497187413621
5.784292146073036,1.027002764260324
5.797998999499749,1.0297447313532508
5.811705852926463,1.0299199005409263
5.825412706353176,1.0308231460175699
5.839119559779889,1.0304076201033356
5.852826413206603,1.0311517966648052
5.866533266633316,1.0290764114729656
5.880240120060029,1.0286415683839543
5.8939469734867425,1.0285737428239352
5.907653826913456,1.0250029350700787
5.92136068034017,1.022334553974434
5.935067533766883,1.018214612941145
5.9487743871935965,1.0165911135409893
5.96248124062031,1.0125029244888593
5.976188094047023,1.0091688930844152
5.989894947473736,1.0042457695261813
6.00360180090045,1.000243731506298
6.017308654327163,0.9952926502070382
6.031015507753876,0.9928803573448713
6.04472236118059,0.987267654217813
6.058429214607303,0.9852285771835174
6.072136068034016,0.9814437873032148
6.0858429214607295,0.9768520732536219
6.099549774887443,0.9759022350980977
6.113256628314156,0.9727448395668313
6.12696348174087,0.970274839584889
6.1406703351675835,0.9689474469037839
6.154377188594297,0.9690242033583047
6.16808404202101,0.9685521064916714
6.181790895447723,0.9683205930068267
6.195497748874437,0.9689755347884291
6.20920460230115,0.969130410067646
6.222911455727863,0.9724717421220391
6.236618309154577,0.9743538738117701
6.25032516258129,0.9773184491107484
6.264032016008003,0.9790461126243708
6.2777388694347165,0.9839793413293881
6.29144572286143,0.98606559755445
6.305152576288143,0.9902324602148949
6.318859429714857,0.9952841713885107
6.3325662831415706,0.9978862831690911
6.346273136568284,1.0021042156895434
6.359979989994997,1.0059965751691684
6.37368684342171,1.008969830436487
6.387393696848424,1.011098141572885
6.401100550275137,1.015795966850246
6.41480740370185,1.017839592190173
6.428514257128564,1.0195517940153482
6.442221110555277,1.0219910123198037
6.45592796398199,1.0217562115509515
6.4696348174087035,1.0237162859951991
6.483341670835417,1.0238705077313417
6.49704852426213,1.0236559280962552
6.510755377688843,1.0233364175076782
6.524462231115558,1.0225070496326727
6.538169084542271,1.0201950388341317
6.551875937968984,1.01662752482601
6.5655827913956974,1.0143955843739765
6.579289644822411,1.0122426115886858
6.592996498249124,1.0080511394661325
6.606703351675837,1.005981897202036
6.620410205102551,1.0014992871990511
6.634117058529264,0.9979027474877554
6.647823911955977,0.9932292947712118
6.6615307653826905,0.9914596333146858
6.675237618809404,0.9865069928967416
6.688944472236117,0.9823506766641017
6.70265132566283,0.9793838964409652
6.716358179089544,0.9760928342609112
6.730065032516258,0.9739981113461234
6.743771885942971,0.9711040281938441
6.7574787393696845,0.9686873672731724
6.771185592796398,0.9691941955650756
6.784892446223111,0.9683733102056696
6.798599299649824,0.9669546597905314
6.812306153076538,0.9671719212785871
6.826013006503251,0.9696324966885561
6.839719859929964,0.9690457277742023
6.8534267133566775,0.9715917869276262
6.867133566783391,0.9735116999317557
6.880840420210104,0.9768251436336239
6.894547273636817,0.979211353072295
6.908254127063531,0.9830182251191661
6.921960980490245,0.9872059755809695
6.935667833916958,0.9916273432669352
6.9493746873436715,0.9964289588418429
6.963081540770385,0.9999987857303096
6.976788394197098,1.004101118326822
6.990495247623811,1.007699918771857
7.004202101050525,1.0110098324451116
7.017908954477238,1.016330281557347
7.031615807903951,1.0185869785537314
7.0453226613306645,1.0220225089788646
7.059029514757378,1.0242840174967034
7.072736368184091,1.0256841466881568
7.086443221610804,1.026894503498657
7.100150075037518,1.0297403368242688
7.113856928464231,1.0307676538934787
7.127563781890945,1.0302767457923974
7.1412706353176585,1.0299470038784655
7.154977488744372,1.0284403788969323
7.168684342171085,1.02805622521252
7.182391195597798,1.0255119077951147
7.196098049024512,1.0235608123799975
7.209804902451225,1.0204768256804864
7.223511755877938,1.0168531576597315
7.2372186093046516,1.0135028172120666
7.250925462731365,1.0100206727524197
7.264632316158078,1.0063423231081732
7.278339169584791,1.0036672152815915
7.292046023011505,0.999288435812218
7.305752876438218,0.9949678168931895
7.319459729864932,0.9914813483999035
7.3331665832916455,0.9878085120872048
7.346873436718359,0.9860209429133043
