time,flux
0.0,0.9650722006929564
0.013706853426713355,0.9649724612025544
0.02741370685342671,0.9671174454595947
0.041120560280140064,0.971824388364157
0.05482741370685342,0.9777812380730591
0.06853426713356678,0.9872135184061054
0.08224112056028013,0.9977691762131169
0.09594797398699349,1.0076721893080811
0.10965482741370684,1.0178334750318434
0.1233616808404202,1.0286257712537197
0.13706853426713356,1.0367158676099586
0.1507753876938469,1.0437864827826722
0.16448224112056026,1.0486069113494918
0.1781890945472736,1.0515132182217002
0.19189594797398699,1.0518178200345825
0.20560280140070034,1.0502153208596903
0.21930965482741369,1.0448840926511525
0.23301650825412704,1.0391731378251323
0.2467233616808404,1.0314186172109796
0.26043021510755376,1.0199640940434447
0.2741370685342671,1.0104168703432845
0.28784392196098046,1.0009689959560548
0.3015507753876938,0.9913799958789759
0.31525762881440716,0.9825148131812332
0.3289644822411205,0.9757972161180566
0.34267133566783387,0.9712900001864774
0.3563781890945472,0.9699678928534646
0.3700850425212606,0.969076528435034
0.38379189594797397,0.9697578311741213
0.3974987493746873,0.9747933370461861
0.41120560280140067,0.980555022569558
0.424912456228114,0.987123689474272
0.43861930965482737,0.99539945735826
0.4523261630815407,1.0035040085946358
0.46603301650825407,1.0128181266160847
0.4797398699349674,1.020047461903401
0.4934467233616808,1.0276528314905615
0.5071535767883941,1.0326906742162132
0.5208604302151075,1.0367475983166525
0.5345672836418208,1.0378717595476712
0.5482741370685342,1.035859183365297
0.5619809904952475,1.0330736550952198
0.5756878439219609,1.0279334009784156
0.5893946973486743,1.0211944759432274
0.6031015507753876,1.0139494095263277
0.616808404202101,1.0043910412044315
0.6305152576288143,0.9946237202077615
0.6442221110555277,0.985436865217726
0.657928964482241,0.9774133862531486
0.6716358179089544,0.9699105086055456
0.6853426713356677,0.9632540162394375
0.6990495247623811,0.9597938945996102
0.7127563781890944,0.9584067109553995
0.7264632316158078,0.9581144086957488
0.7401700850425212,0.9616195442327657
0.7538769384692345,0.9648485859664696
0.7675837918959479,0.9695083014560698
0.7812906453226612,0.9759427745322555
0.7949974987493746,0.9824786031347434
0.8087043521760879,0.9909728850109539
0.8224112056028013,0.997793200466752
0.8361180590295146,1.0045508182715766
0.849824912456228,1.0104871017176535
0.8635317658829413,1.014655319891817
0.8772386193096547,1.0178282693154856
0.8909454727363681,1.0191668910625191
0.9046523261630814,1.0177068943359173
0.9183591795897948,1.0172276554013235
0.9320660330165081,1.0129857842102863
0.9457728864432215,1.0075398346066815
0.9594797398699348,1.0023395042002365
0.9731865932966483,0.9957780141197259
0.9868934467233615,0.988716710896336
1.000600300150075,0.9823340161328498
1.0143071535767882,0.977640803573881
1.0280140070035018,0.9729690399868257
1.041720860430215,0.9701103942372136
1.0554277138569284,0.9687077696302872
1.0691345672836416,0.9673193167038369
1.0828414207103552,0.9705091189437057
1.0965482741370685,0.9725676233687278
1.1102551275637818,0.97603191847944
1.123961980990495,0.9819348368234185
1.1376688344172086,0.9876293388204054
1.1513756878439219,0.992810402859549
1.1650825412706352,0.9998639470902457
1.1787893946973487,1.0049000714635759
1.192496248124062,1.0103724344960656
1.2062031015507753,1.0159530422453567
1.2199099549774886,1.0188042683045657
1.233616808404202,1.0208074611386326
1.2473236618309154,1.022627629098937
1.2610305152576287,1.0213940419309886
1.274737368684342,1.0204765337691195
1.2884442221110555,1.0186724920236168
1.3021510755377688,1.015640990710809
1.315857928964482,1.0126233986625535
1.3295647823911956,1.0080342390473682
1.3432716358179089,1.0055197255497978
1.3569784892446222,1.0011127469447656
1.3706853426713355,0.9991650438138245
1.384392196098049,0.9966581770297999
1.3980990495247623,0.9955272354549746
1.4118059029514756,0.9950186264779921
1.4255127563781889,0.9946108795539877
1.4392196098049024,0.9953724246234646
1.4529264632316157,0.9976847260101719
1.466633316658329,0.9993807871486088
1.4803401700850425,1.002744233579961
1.4940470235117558,1.006221915081448
1.507753876938469,1.0094634130210796
1.5214607303651824,1.0114941009748835
1.5351675837918959,1.014308216461361
1.5488744372186092,1.0176999637613062
1.5625812906453225,1.0179389246820476
1.5762881440720358,1.019883031139814
1.5899949974987493,1.0195924753652073
1.6037018509254626,1.0190358316005406
1.6174087043521759,1.0181248806852126
1.6311155577788894,1.0173082574879055
1.6448224112056027,1.0150216271885935
1.658529264632316,1.0131441664376972
1.6722361180590293,1.0115392379027153
1.6859429714857428,1.0090527818643573
1.699649824912456,1.0075976060123781
1.7133566783391694,1.0047465379419527
1.7270635317658827,1.0038856311231874
1.7407703851925962,1.0026741780404387
1.7544772386193095,1.00274315161104
1.7681840920460228,1.0014244508930017
1.7818909454727363,1.001623203996974
1.7955977988994496,1.0020890870916541
1.8093046523261629,1.0015614927843317
1.8230115057528762,1.002215309676637
1.8367183591795897,1.0018826988835057
1.850425212606303,1.0012594333303144
1.8641320660330163,1.0009526488567007
1.8778389194597296,1.000057630575749
1.891545772886443,0.9985091686489298
1.9052526263131564,0.9982133535503538
1.9189594797398697,0.9956274344965778
1.9326663331665832,0.9957349093892832
1.9463731865932965,0.9936096532778725
1.9600800400200098,0.9918930513758181
1.973786893446723,0.9918639020657167
1.9874937468734366,0.9898925901025774
2.00120060030015,0.9897031913469838
2.014907453726863,0.9890875443330776
2.0286143071535765,0.9897798549676753
2.04232116058029,0.9906729465250583
2.0560280140070035,0.9912184172449725
2.069734867433717,0.9939638800184312
2.08344172086043,0.9960807550797042
2.0971485742871434,0.9960283296369429
2.1108554277138567,0.9980014767264895
2.12456228114057,0.9986797375063909
2.1382691345672833,0.9993179080679844
2.1519759879939966,0.9988481330449303
2.1656828414207103,0.9989123718891891
2.1793896948474236,0.9970689651637654
2.193096548274137,0.9951781314674578
2.20680340170085,0.9935679017809231
2.2205102551275635,0.9904669775022933
2.234217108554277,0.9879140033729374
2.24792396198099,0.9845049357013927
2.261630815407704,0.981108624046442
2.275337668834417,0.9792105795167572
2.2890445222611304,0.9762485358633984
2.3027513756878437,0.9745094315048827
2.316458229114557,0.9752380559519741
2.3301650825412703,0.9747179828602297
2.3438719359679836,0.9773707226502139
2.3575787893946973,0.9799233569023966
2.3712856428214106,0.9828410677205432
2.384992496248124,0.9863478186110527
2.3986993496748372,0.992014357536118
2.4124062031015505,0.9969493508617645
2.426113056528264,1.0018745854706006
2.439819909954977,1.0068842324667122
2.4535267633816904,1.0117434278584658
2.467233616808404,1.0140651138267103
2.4809404702351174,1.0166787425882484
2.4946473236618307,1.0184165851027385
2.508354177088544,1.0184372387471325
2.5220610305152573,1.0176653111692926
2.5357678839419706,1.0156819150528558
2.549474737368684,1.0132173037751515
2.5631815907953976,1.0086618579104443
2.576888444222111,1.0032128351886054
2.5905952976488242,0.9970021441033153
2.6043021510755375,0.9941426228370465
2.618009004502251,0.9892283585034115
2.631715857928964,0.9847285691623441
2.6454227113556774,0.9822915037419626
2.659129564782391,0.9790562919407035
2.6728364182091044,0.9804019643236754
2.6865432716358177,0.9812336026304519
2.700250125062531,0.9838531465432584
2.7139569784892443,0.9887458049324191
2.7276638319159576,0.9950211044024988
2.741370685342671,1.0005060648447193
2.755077538769384,1.007670036002602
2.768784392196098,1.0147002564969925
2.7824912456228112,1.0224274882653632
2.7961980990495245,1.0287995743359832
2.809904952476238,1.0326521636515602
2.823611805902951,1.038280579562512
2.8373186593296644,1.040220956388675
2.8510255127563777,1.041333190386669
2.8647323661830915,1.0400926249951494
2.8784392196098048,1.037732719948386
2.892146073036518,1.0315035276825608
2.9058529264632313,1.026659747889501
2.9195597798899446,1.018372725988628
2.933266633316658,1.011173881746988
2.9469734867433712,1.0025501499700944
2.960680340170085,0.9953638516935381
2.9743871935967983,0.9888401062438497
2.9880940470235116,0.9818300041111777
3.001800900450225,0.9772465693859683
3.015507753876938,0.9755158376448653
3.0292146073036514,0.9731670930833659
3.0429214607303647,0.9752162378162835
3.056628314157078,0.9770542482320883
3.0703351675837918,0.9819978564612653
3.084042021010505,0.9884879020922145
3.0977488744372184,0.99549189958168
3.1114557278639317,1.00438593625131
3.125162581290645,1.011608895047648
3.1388694347173582,1.0194121055728025
3.1525762881440715,1.0267815601509702
3.1662831415707853,1.0322391570457103
3.1799899949974986,1.0364211119424878
3.193696848424212,1.0392559582130043
3.207403701850925,1.0370932173782879
3.2211105552776385,1.0345561106829622
3.2348174087043517,1.029687946602268
3.248524262131065,1.022845924079622
3.262231115557779,1.0150142090222858
3.275937968984492,1.0056530722906996
3.2896448224112054,0.9952664951874729
3.3033516758379187,0.986456790802582
3.317058529264632,0.9761424950790887
3.3307653826913453,0.9678279777535826
3.3444722361180586,0.9611046759535248
3.358179089544772,0.9557506941909053
3.3718859429714856,0.9535068469701997
3.385592796398199,0.9527030433361116
3.399299649824912,0.9535460654291456
3.4130065032516255,0.9595113066465385
3.4267133566783388,0.9647615794699017
3.440420210105052,0.9730859937441453
3.4541270635317654,0.9815317290797215
3.467833916958479,0.9911185511228935
3.4815407703851924,1.0003893022788146
3.4952476238119057,1.0100019517378995
3.508954477238619,1.017317661065084
3.5226613306653323,1.0243421965077701
3.5363681840920456,1.0271203548924592
3.550075037518759,1.0300639890710475
3.5637818909454726,1.0296029915557003
3.577488744372186,1.027368667752468
3.591195597798899,1.0229010579848916
3.6049024512256125,1.0159203433230268
3.6186093046523258,1.007287685339598
3.632316158079039,0.9968679833263442
3.6460230115057524,0.9888646704146202
3.659729864932466,0.9799054474210225
3.6734367183591794,0.9709511679591446
3.6871435717858927,0.9629446167757751
3.700850425212606,0.9572110972963159
3.7145572786393193,0.9522028916817727
3.7282641320660326,0.9527435439999543
3.741970985492746,0.9521436924986288
3.755677838919459,0.9554954598504816
3.769384692346173,0.9609380234397394
3.783091545772886,0.9693855079138707
3.7967983991995995,0.9791920516002781
3.810505252626313,0.9889857592353557
3.824212106053026,1.000755237250159
3.8379189594797394,1.0108595924244432
3.8516258129064527,1.020978694409079
3.8653326663331664,1.0295500308291916
3.8790395197598797,1.0358794317972506
3.892746373186593,1.0397340722877813
3.9064532266133063,1.0434110800533294
3.9201600800400196,1.0431669567225716
3.933866933466733,1.0397359671004602
3.947573786893446,1.0365823572591202
3.96128064032016,1.0303199700335863
3.974987493746873,1.0222191406366998
3.9886943471735865,1.0132176586342039
4.0024012006003,1.0029979858740958
4.016108054027013,0.9940723306055274
4.029814907453726,0.985963953057457
4.04352176088044,0.978803540168422
4.057228614307153,0.9728462806774486
4.070935467733866,0.9689872196384046
4.08464232116058,0.9683152049446964
4.098349174587293,0.9704930469108365
4.112056028014007,0.9736998041306038
4.12576288144072,0.9794853927271668
4.139469734867434,0.9856990121080192
4.153176588294147,0.9949506032696058
4.16688344172086,1.0055520615523768
4.1805902951475735,1.0143438349538565
4.194297148574287,1.0244930380055786
4.208004002001,1.0324866982666234
4.221710855427713,1.0394271483389659
4.235417708854427,1.0459780865293775
4.24912456228114,1.048092477985697
4.262831415707853,1.049967548038714
4.276538269134567,1.0484201222346332
4.29024512256128,1.0443969875490426
4.303951975987993,1.0384615246429598
4.317658829414707,1.0316542512378564
4.331365682841421,1.0230249322384346
4.345072536268134,1.0147053270262856
4.358779389694847,1.0033453091371822
4.3724862431215605,0.9945964012857248
4.386193096548274,0.9868403828227483
4.399899949974987,0.9799132639827027
4.4136068034017,0.9745686341155423
4.427313656828414,0.9699317677775431
4.441020510255127,0.9681483821153998
4.45472736368184,0.9686226674286542
4.468434217108554,0.9731881251547745
4.482141070535267,0.9766313413400635
4.49584792396198,0.9836785690518816
4.5095547773886935,0.9894643996479019
4.523261630815408,0.9958050663857736
4.536968484242121,1.0047418749282135
4.550675337668834,1.0115829973841972
4.5643821910955475,1.0187259837754956
4.578089044522261,1.023053877699475
4.591795897948974,1.026799362950553
4.605502751375687,1.026775231519437
4.619209604802401,1.0288298878541418
4.632916458229114,1.0267490631039347
4.646623311655827,1.0230410315859972
4.660330165082541,1.017652276485559
4.674037018509254,1.0106103223373326
4.687743871935967,1.0033184691275796
4.7014507253626805,0.9962998907797633
4.715157578789395,0.9876066212936789
4.728864432216108,0.9799784564641332
4.742571285642821,0.9747219206980184
4.756278139069535,0.9684850818927679
4.769984992496248,0.9643659720229689
4.783691845922961,0.9624046122827737
4.7973986993496744,0.9613496097136947
4.811105552776388,0.9625387257996899
4.824812406203101,0.9662148117251915
4.838519259629814,0.9701943056838349
4.852226113056528,0.9752039143932537
4.865932966483241,0.9805165574547677
4.879639819909954,0.9870213072233198
4.8933466733366675,0.9932238934928397
4.907053526763381,1.0002514413807333
4.920760380190095,1.0047231045894334
4.934467233616808,1.0090388880897063
4.948174087043522,1.0125805002512207
4.961880940470235,1.0134961547902457
4.975587793896948,1.0147276987248526
4.9892946473236615,1.013914696280885
5.003001500750375,1.0108783909220143
5.016708354177088,1.0073199169162703
5.030415207603801,1.0032175376877095
5.044122061030515,0.9995771799614165
5.057828914457228,0.9940409903250763
5.071535767883941,0.989845608835603
5.0852426213106545,0.98546733934603
5.098949474737368,0.9815045595829827
5.112656328164081,0.9799425871939362
5.126363181590795,0.978793633650143
5.140070035017509,0.9774799065694584
5.153776888444222,0.9801076872182326
5.167483741870935,0.9807108046391895
5.1811905952976485,0.984120778438504
5.194897448724362,0.98778172044816
5.208604302151075,0.9916184631405761
5.222311155577788,0.9971374282140627
5.236018009004502,1.000236659194885
5.249724862431215,1.0050406629475297
5.263431715857928,1.009710512337785
5.2771385692846415,1.013033373360439
5.290845422711355,1.0152128688646365
5.304552276138068,1.0165262530967776
5.318259129564782,1.0183873821338807
5.331965982991496,1.0172944403116557
5.345672836418209,1.0175272008970657
5.359379689844922,1.0171555154843346
5.3730865432716355,1.014602653989291
5.386793396698349,1.0128842236898308
5.400500250125062,1.0115427043582086
5.414207103551775,1.0088033366361455
5.427913956978489,1.0067701289992843
5.441620810405202,1.0061727331502703
5.455327663831915,1.0046367448218967
5.4690345172586285,1.0049035863204496
5.482741370685342,1.0038304886072624
5.496448224112055,1.0036570810260543
5.510155077538768,1.0040091923321923
5.523861930965483,1.005822141388133
5.537568784392196,1.0063878817140042
5.551275637818909,1.0075437527127116
5.5649824912456225,1.0089821198068307
5.578689344672336,1.0102661794555763
5.592396198099049,1.0103144692846606
5.606103051525762,1.0116879213513599
5.619809904952476,1.0117474142654481
5.633516758379189,1.0115852460029597
5.647223611805902,1.0107948309644272
5.660930465232616,1.0107760004877389
5.674637318659329,1.009133125534508
5.688344172086042,1.007696026320368
5.7020510255127554,1.0085475049687622
5.71575787893947,1.0068297005153766
5.729464732366183,1.0051868467322962
5.743171585792896,1.0058065274822805
5.7568784392196095,1.004616023588145
5.770585292646323,1.0041885598221503
5.784292146073036,1.0033586730341866
5.797998999499749,1.0052407480022394
5.811705852926463,1.0061642810238602
5.825412706353176,1.005048024142792
5.839119559779889,1.0060029338434988
5.852826413206603,1.0063294621076637
5.866533266633316,1.006022451164166
5.880240120060029,1.0058581209710509
5.8939469734867425,1.0048973895333813
5.907653826913456,1.0034249765567784
5.92136068034017,1.001526486889846
5.935067533766883,1.0003589363847631
5.9487743871935965,0.9959967258240977
5.96248124062031,0.9939622033604781
5.976188094047023,0.990617607602349
5.989894947473736,0.9873498974555944
6.00360180090045,0.9838101236875898
6.017308654327163,0.9828667477514181
6.031015507753876,0.981323400658298
6.04472236118059,0.9804308557369769
6.058429214607303,0.9800572674169794
6.072136068034016,0.9804510400678976
6.0858429214607295,0.9821088145151903
6.099549774887443,0.9845791359475261
6.113256628314156,0.9870912623463198
6.12696348174087,0.9898954819310991
6.1406703351675835,0.9940158408289202
6.154377188594297,0.9970173363165062
6.16808404202101,1.00024829218848
6.181790895447723,1.0017338985467574
6.195497748874437,1.006378054216575
6.20920460230115,1.007130734174666
6.222911455727863,1.007040594450029
6.236618309154577,1.0069758940284708
6.25032516258129,1.0055172373417212
6.264032016008003,1.0008760940928163
6.2777388694347165,0.9983808795163174
6.29144572286143,0.9946211897614534
6.305152576288143,0.9904855485194122
6.318859429714857,0.9850238017954224
6.3325662831415706,0.9801873060984386
6.346273136568284,0.9769538088560002
6.359979989994997,0.9727352796947479
6.37368684342171,0.9704536595352851
6.387393696848424,0.9708027542401865
6.401100550275137,0.969347979877759
6.41480740370185,0.9718148417956086
6.428514257128564,0.9762323915885793
6.442221110555277,0.9793009949911003
6.45592796398199,0.9854301077586024
6.4696348174087035,0.9916806189885105
6.483341670835417,0.9986937665305583
6.49704852426213,1.005664038169804
6.510755377688843,1.0128440608205584
6.524462231115558,1.018305750393095
6.538169084542271,1.0222308457736011
6.551875937968984,1.0264259210943807
6.5655827913956974,1.0305476051716678
6.579289644822411,1.030747467822312
6.592996498249124,1.0285285798974273
6.606703351675837,1.0259533681316644
6.620410205102551,1.0222500365903806
6.634117058529264,1.0169969203120501
6.647823911955977,1.0109657428506218
6.6615307653826905,1.003120789678124
6.675237618809404,0.9981443563097983
6.688944472236117,0.9920192909146514
6.70265132566283,0.9855553474470914
6.716358179089544,0.9813081147567394
6.730065032516258,0.97815425924703
6.743771885942971,0.9767448055563392
6.7574787393696845,0.9781107112097971
6.771185592796398,0.9806915414082698
6.784892446223111,0.9834744355532096
6.798599299649824,0.9902390782411612
6.812306153076538,0.9962229531693607
6.826013006503251,1.0046066166857517
6.839719859929964,1.0131057190772195
6.8534267133566775,1.0215322325805947
6.867133566783391,1.028876413852025
6.880840420210104,1.0363559477107267
6.894547273636817,1.0415323897029498
6.908254127063531,1.0450117348736825
6.921960980490245,1.0470642766450093
6.935667833916958,1.044742447615362
6.9493746873436715,1.043106424825011
6.963081540770385,1.0380435634440341
6.976788394197098,1.0315586748238017
6.990495247623811,1.0243217399014823
7.004202101050525,1.0144203865937165
7.017908954477238,1.0056853637367655
7.031615807903951,0.996153483198072
7.0453226613306645,0.9862274185357514
7.059029514757378,0.9797671438353552
7.072736368184091,0.9741381274651651
7.086443221610804,0.9691569333683766
7.100150075037518,0.9663604954034052
7.113856928464231,0.9673023554150605
7.127563781890945,0.9689743025486774
7.1412706353176585,0.9731711483747862
7.154977488744372,0.9807868350038601
7.168684342171085,0.9876179175218424
7.182391195597798,0.9963049369287134
7.196098049024512,1.0049677340611318
7.209804902451225,1.0142420702908455
7.223511755877938,1.022194784009804
7.2372186093046516,1.0285302413153499
7.250925462731365,1.0334675750073195
7.264632316158078,1.0360755140401834
7.278339169584791,1.0371100038455656
7.292046023011505,1.0365544449202746
7.305752876438218,1.0316082419816448
7.319459729864932,1.0258232922108377
7.3331665832916455,1.0174200407275775
7.346873436718359,1.0079672502043187
