time,flux
0.0,0.9699092279095943
0.013706853426713355,0.9684660153710248
0.02741370685342671,0.9708729033167585
0.041120560280140064,0.9717561132892633
0.05482741370685342,0.9759365076276818
0.06853426713356678,0.9790284521410445
0.08224112056028013,0.9840932187326368
0.09594797398699349,0.990061140359724
0.10965482741370684,0.9966831741760134
0.1233616808404202,1.002046986954788
0.13706853426713356,1.0087574693084522
0.1507753876938469,1.014712627266199
0.16448224112056026,1.0195564298948385
0.1781890945472736,1.0234573485325744
0.19189594797398699,1.027392272929508
0.20560280140070034,1.029250515839594
0.21930965482741369,1.0312018661360642
0.23301650825412704,1.03144747502338
0.2467233616808404,1.029170474726981
0.26043021510755376,1.026283893507414
0.2741370685342671,1.0227151385229551
0.28784392196098046,1.0187416057561285
0.3015507753876938,1.012592218365262
0.31525762881440716,1.0064815518815204
0.3289644822411205,1.0005583392825277
0.34267133566783387,0.9940699874776265
0.3563781890945472,0.9865397553471126
0.3700850425212606,0.9825713960136847
0.38379189594797397,0.9771160325928572
0.3974987493746873,0.9743730174570701
0.41120560280140067,0.9717964197427353
0.424912456228114,0.9702904327739738
0.43861930965482737,0.9693049959973136
0.4523261630815407,0.9703967583780996
0.46603301650825407,0.9733377747698716
0.4797398699349674,0.9768804416107622
0.4934467233616808,0.9804923880225619
0.5071535767883941,0.9859600058103082
0.5208604302151075,0.9918806762582325
0.5345672836418208,0.9983547263681185
0.5482741370685342,1.0051885157642866
0.5619809904952475,1.009607957385986
0.5756878439219609,1.0159411391075148
0.5893946973486743,1.020498311394481
0.6031015507753876,1.0246665960691703
0.616808404202101,1.0277611198781742
0.6305152576288143,1.029240308846742
0.6442221110555277,1.0310846594466483
0.657928964482241,1.0301040663618872
0.6716358179089544,1.0275238093647696
0.6853426713356677,1.0246863993854147
0.6990495247623811,1.020011943747599
0.7127563781890944,1.015725742174457
0.7264632316158078,1.0105327167584375
0.7401700850425212,1.0039478904991348
0.7538769384692345,0.9977532368664683
0.7675837918959479,0.9920892717867107
0.7812906453226612,0.9867895106846765
0.7949974987493746,0.9805656096203134
0.8087043521760879,0.9771192654509578
0.8224112056028013,0.9738970007021152
0.8361180590295146,0.9708574686109531
0.849824912456228,0.9700304622225396
0.8635317658829413,0.9706900229445479
0.8772386193096547,0.9716404475280137
0.8909454727363681,0.9755537086207241
0.9046523261630814,0.9781218416800802
0.9183591795897948,0.9830164555545425
0.9320660330165081,0.9884137696909145
0.9457728864432215,0.9945048006541084
0.9594797398699348,1.0004194826290076
0.9731865932966483,1.0066853407955436
0.9868934467233615,1.0118694969930697
1.000600300150075,1.0170395727892547
1.0143071535767882,1.0220712918770112
1.0280140070035018,1.0261058958423617
1.041720860430215,1.0284922702279637
1.0554277138569284,1.0296783249514592
1.0691345672836416,1.0291618904458921
1.0828414207103552,1.028313289455466
1.0965482741370685,1.0264621442153112
1.1102551275637818,1.022489544444866
1.123961980990495,1.0183526274553603
1.1376688344172086,1.0139796625858535
1.1513756878439219,1.007285736218892
1.1650825412706352,1.0010384027405768
1.1787893946973487,0.9954100511461546
1.192496248124062,0.9905961881205162
1.2062031015507753,0.9843899388553539
1.2199099549774886,0.9799889752693084
1.233616808404202,0.9767652024598136
1.2473236618309154,0.9735697804814593
1.2610305152576287,0.9716331764407102
1.274737368684342,0.9714066189317261
1.2884442221110555,0.9723904892581199
1.3021510755377688,0.9737400376158066
1.315857928964482,0.9779064920767041
1.3295647823911956,0.9804487766127173
1.3432716358179089,0.9858902038210327
1.3569784892446222,0.9909720824793508
1.3706853426713355,0.9965693319688972
1.384392196098049,1.0019572401381145
1.3980990495247623,1.0083587641785294
1.4118059029514756,1.0137343738178954
1.4255127563781889,1.0181221252619321
1.4392196098049024,1.021820913578906
1.4529264632316157,1.0261249371756853
1.466633316658329,1.027410906628412
1.4803401700850425,1.0286955593681975
1.4940470235117558,1.0282136460403788
1.507753876938469,1.0270002816358763
1.5214607303651824,1.0231630315755147
1.5351675837918959,1.0207031542095717
1.5488744372186092,1.016191093165086
1.5625812906453225,1.0099315961371935
1.5762881440720358,1.0053808003902018
1.5899949974987493,0.9995962482678732
1.6037018509254626,0.9940132011641776
1.6174087043521759,0.9884654588738101
1.6311155577788894,0.9843135615146082
1.6448224112056027,0.9797883494919138
1.658529264632316,0.9760680929476083
1.6722361180590293,0.9740314969215912
1.6859429714857428,0.973343547783874
1.699649824912456,0.97310677760059
1.7133566783391694,0.9738302237821994
1.7270635317658827,0.9763870016717249
1.7407703851925962,0.9789269370062741
1.7544772386193095,0.9841978637488074
1.7681840920460228,0.9886386598198352
1.7818909454727363,0.9924360043430295
1.7955977988994496,0.9995983313007133
1.8093046523261629,1.003802488874439
1.8230115057528762,1.0086105757666948
1.8367183591795897,1.0147942487247041
1.850425212606303,1.0191919614474994
1.8641320660330163,1.0220439852525558
1.8778389194597296,1.0243555454324498
1.891545772886443,1.0265203673369125
1.9052526263131564,1.026380945238668
1.9189594797398697,1.0249814573059437
1.9326663331665832,1.0229410333952993
1.9463731865932965,1.0207144481165689
1.9600800400200098,1.0168435302206047
1.973786893446723,1.0135081980791334
1.9874937468734366,1.007512318295048
2.00120060030015,1.0031295476956266
2.014907453726863,0.9977676729985938
2.0286143071535765,0.992176593721238
2.04232116058029,0.9876998052300274
2.0560280140070035,0.9831913868500418
2.069734867433717,0.9802330470265087
2.08344172086043,0.9776433314965971
2.0971485742871434,0.9749271129079559
2.1108554277138567,0.9748602806206378
2.12456228114057,0.9754409380250509
2.1382691345672833,0.9766380057613997
2.1519759879939966,0.9791597827355514
2.1656828414207103,0.9823226969808595
2.1793896948474236,0.9865155757079641
2.193096548274137,0.9909715076742717
2.20680340170085,0.9955485204621183
2.2205102551275635,1.0007624690536556
2.234217108554277,1.006556407311488
2.24792396198099,1.0111587756529512
2.261630815407704,1.015285786782191
2.275337668834417,1.0185298429334542
2.2890445222611304,1.0211420492288061
2.3027513756878437,1.023673754001959
2.316458229114557,1.023359625012985
2.3301650825412703,1.0244404176923365
2.3438719359679836,1.023177551740988
2.3575787893946973,1.0213780863806086
2.3712856428214106,1.0170917084905031
2.384992496248124,1.0140993826531417
2.3986993496748372,1.0098547919379628
2.4124062031015505,1.0061910615193912
2.426113056528264,1.000298472369092
2.439819909954977,0.996038700858814
2.4535267633816904,0.9916813531227607
2.467233616808404,0.9868506648230709
2.4809404702351174,0.9834915922431967
2.4946473236618307,0.9808801488882101
2.508354177088544,0.9790681410401401
2.5220610305152573,0.9775379648812228
2.5357678839419706,0.977562274278909
2.549474737368684,0.9770151772280282
2.5631815907953976,0.9792567058591896
2.576888444222111,0.9816875760309854
2.5905952976488242,0.9860256066548733
2.6043021510755375,0.98939596349065
2.618009004502251,0.9945597096585072
2.631715857928964,0.9982467012812969
2.6454227113556774,1.002625491817738
2.659129564782391,1.0072361005265509
2.6728364182091044,1.0106077695056777
2.6865432716358177,1.0144027092234145
2.700250125062531,1.0181159686349048
2.7139569784892443,1.0207055336589623
2.7276638319159576,1.0202079973429736
2.741370685342671,1.0211434018713224
2.755077538769384,1.0207828434375072
2.768784392196098,1.0203365729340843
2.7824912456228112,1.0184482628399587
2.7961980990495245,1.0147905327962163
2.809904952476238,1.0122367338709153
2.823611805902951,1.007582996003817
2.8373186593296644,1.0030400589268953
2.8510255127563777,0.9988939110946303
2.8647323661830915,0.9955031871774096
2.8784392196098048,0.9904466637481841
2.892146073036518,0.9874299644090682
2.9058529264632313,0.983791170584785
2.9195597798899446,0.9820053111763165
2.933266633316658,0.9808128729124179
2.9469734867433712,0.9797553699039774
2.960680340170085,0.9808884554209715
2.9743871935967983,0.9815676272781707
2.9880940470235116,0.9825852043470135
3.001800900450225,0.9850279786867855
3.015507753876938,0.988833057357983
3.0292146073036514,0.9931088449902905
3.0429214607303647,0.9958327494003595
3.056628314157078,1.000640962080949
3.0703351675837918,1.003738389361353
3.084042021010505,1.0075410123566075
3.0977488744372184,1.011292901057028
3.1114557278639317,1.013392784826089
3.125162581290645,1.0167268234551217
3.1388694347173582,1.0176282768524816
3.1525762881440715,1.0194678403736668
3.1662831415707853,1.019281133702057
3.1799899949974986,1.017905894464296
3.193696848424212,1.0172616529541767
3.207403701850925,1.015490278664749
3.2211105552776385,1.0124957590508519
3.2348174087043517,1.0087109287639997
3.248524262131065,1.005355118275565
3.262231115557779,1.001841310800268
3.275937968984492,0.9975913704786196
3.2896448224112054,0.9943051840220496
3.3033516758379187,0.9901900403483038
3.317058529264632,0.9881112592644538
3.3307653826913453,0.9863573770573513
3.3444722361180586,0.9835364112505425
3.358179089544772,0.983360312546823
3.3718859429714856,0.9827276817120102
3.385592796398199,0.9824782231992312
3.399299649824912,0.9842692776409288
3.4130065032516255,0.9861310404952961
3.4267133566783388,0.9875541839588554
3.440420210105052,0.9921648404058847
3.4541270635317654,0.9939536296888632
3.467833916958479,0.9976651690597829
3.4815407703851924,1.0005478306423112
3.4952476238119057,1.0039103261927658
3.508954477238619,1.0078321203230405
3.5226613306653323,1.011172238181925
3.5363681840920456,1.0124279264812004
3.550075037518759,1.0150270497025353
3.5637818909454726,1.0162070720824417
3.577488744372186,1.014861798605949
3.591195597798899,1.01520462011796
3.6049024512256125,1.0151507427961914
3.6186093046523258,1.0131459106492162
3.632316158079039,1.010563627429155
3.6460230115057524,1.0089380275922804
3.659729864932466,1.0052935763032533
3.6734367183591794,1.003517731047757
3.6871435717858927,0.9995043401005237
3.700850425212606,0.9969477955126573
3.7145572786393193,0.9943118528393552
3.7282641320660326,0.9913954804726108
3.741970985492746,0.9894856913393831
3.755677838919459,0.9876518406326467
3.769384692346173,0.9865724951320797
3.783091545772886,0.9864954846661987
3.7967983991995995,0.986417604600037
3.810505252626313,0.988418421551958
3.824212106053026,0.9883282423706865
3.8379189594797394,0.9895740263118674
3.8516258129064527,0.9913019819178891
3.8653326663331664,0.9948709717558919
3.8790395197598797,0.9966007075002916
3.892746373186593,0.999998831617879
3.9064532266133063,1.0022988349272903
3.9201600800400196,1.00519756797016
3.933866933466733,1.0073334734041406
3.947573786893446,1.009303838176616
3.96128064032016,1.0108135160724294
3.974987493746873,1.0120233000576233
3.9886943471735865,1.013415387675416
4.0024012006003,1.0115309288763596
4.016108054027013,1.0116826649240216
4.029814907453726,1.0105626254190594
4.04352176088044,1.0097193698057807
4.057228614307153,1.0077363859225257
4.070935467733866,1.00596505483183
4.08464232116058,1.0034706646484899
4.098349174587293,1.0013326300612342
4.112056028014007,0.9986249992645347
4.12576288144072,0.9958028152240926
4.139469734867434,0.9951147488786808
4.153176588294147,0.9931407366488544
4.16688344172086,0.9912572345082166
4.1805902951475735,0.989580536417508
4.194297148574287,0.9894782750668393
4.208004002001,0.9888729092128328
4.221710855427713,0.9904030796986345
4.235417708854427,0.9909335668178768
4.24912456228114,0.9916420763283755
4.262831415707853,0.99365620909714
4.276538269134567,0.9949817910539287
4.29024512256128,0.9970999867261174
4.303951975987993,0.999489686508953
4.317658829414707,1.0003653331772457
4.331365682841421,1.0030463885125493
4.345072536268134,1.0053798899894282
4.358779389694847,1.005501077319712
4.3724862431215605,1.0082811248202719
4.386193096548274,1.007555207939286
4.399899949974987,1.0084953001580153
4.4136068034017,1.0089556254651888
4.427313656828414,1.0085408824659068
4.441020510255127,1.008215094661657
4.45472736368184,1.00742756228267
4.468434217108554,1.0053883229799625
4.482141070535267,1.0049291617113412
4.49584792396198,1.003218299008448
4.5095547773886935,1.001639532097805
4.523261630815408,0.9998293383807271
4.536968484242121,0.9984720339721941
4.550675337668834,0.9965030708952275
4.5643821910955475,0.9950940465287816
4.578089044522261,0.9938431178392314
4.591795897948974,0.9938621622106223
4.605502751375687,0.9928507498179349
4.619209604802401,0.992905179634613
4.632916458229114,0.9931897229119514
4.646623311655827,0.9943472098756092
4.660330165082541,0.994293254182913
4.674037018509254,0.995682033836563
4.687743871935967,0.9960718897841738
4.7014507253626805,0.9980734004061207
4.715157578789395,0.9984552502948484
4.728864432216108,1.0005065487043467
4.742571285642821,1.0014699654449142
4.756278139069535,1.0028532199286093
4.769984992496248,1.002374715177579
4.783691845922961,1.00476448362575
4.7973986993496744,1.0042385049302012
4.811105552776388,1.0051987605484456
4.824812406203101,1.0053661685082176
4.838519259629814,1.0051625460479254
4.852226113056528,1.005350508665438
4.865932966483241,1.0049868911232365
4.879639819909954,1.0035311838644931
4.8933466733366675,1.0027750228734886
4.907053526763381,1.001979169456396
4.920760380190095,1.0004878856890418
4.934467233616808,1.0006744711039735
4.948174087043522,0.9994746868024367
4.961880940470235,0.9976031503286716
4.975587793896948,0.9971622163209285
4.9892946473236615,0.9971118956824812
5.003001500750375,0.9963279114373602
5.016708354177088,0.9966130271115407
5.030415207603801,0.996651023290174
5.044122061030515,0.9958772876252391
5.057828914457228,0.9965456777188159
5.071535767883941,0.9977148906858456
5.0852426213106545,0.9985056312685291
5.098949474737368,0.9977906956683297
5.112656328164081,0.998949774373204
5.126363181590795,0.9991950721526339
5.140070035017509,1.000957908956238
5.153776888444222,1.0008737458329837
5.167483741870935,1.0013064921736616
5.1811905952976485,1.0013413780153055
5.194897448724362,1.0018677000189136
5.208604302151075,1.0026088193627412
5.222311155577788,1.0030115966602604
5.236018009004502,1.0006743013951371
5.249724862431215,1.0021538889280743
5.263431715857928,0.9995518986525587
5.2771385692846415,1.000935931859263
5.290845422711355,0.9998361471773152
5.304552276138068,0.9996079929651521
5.318259129564782,1.0012443852056174
5.331965982991496,0.9990674305955431
5.345672836418209,0.999223231016135
5.359379689844922,0.9986328677242855
5.3730865432716355,0.9988850163629959
5.386793396698349,0.9987200488071318
5.400500250125062,0.9992680498181895
5.414207103551775,0.9989897345935316
5.427913956978489,0.9989058123842779
5.441620810405202,0.9998426377920065
5.455327663831915,1.0001655883401575
5.4690345172586285,1.0014621189880777
5.482741370685342,1.0009917867576108
5.496448224112055,1.0011028750117021
5.510155077538768,1.0014508727275506
5.523861930965483,1.0015722305409973
5.537568784392196,1.00163234483899
5.551275637818909,1.0018332853718737
5.5649824912456225,1.00211196931358
5.578689344672336,1.0020272565259287
5.592396198099049,0.9995190950553461
5.606103051525762,1.0002722143308684
5.619809904952476,0.9998079063603208
5.633516758379189,1.0002325502496854
5.647223611805902,0.9988265869500876
5.660930465232616,0.9990125584722843
5.674637318659329,0.997534177717561
5.688344172086042,0.9972448563700675
5.7020510255127554,0.9970956069971241
5.71575787893947,0.9967152204101939
5.729464732366183,0.9970577587979655
5.743171585792896,0.9964792158340988
5.7568784392196095,0.9967720189014528
5.770585292646323,0.9981722273453028
5.784292146073036,0.9991582144598807
5.797998999499749,0.9987321695215322
5.811705852926463,1.0002671299621506
5.825412706353176,1.0003370993110854
5.839119559779889,1.0020802925846413
5.852826413206603,1.002467214488368
5.866533266633316,1.0032845496297111
5.880240120060029,1.004283849891517
5.8939469734867425,1.0043407969842397
5.907653826913456,1.00509554739814
5.92136068034017,1.00487521656354
5.935067533766883,1.0051292662006244
5.9487743871935965,1.0041265684119907
5.96248124062031,1.00574571231776
5.976188094047023,1.0041209053743485
5.989894947473736,1.0027624832737836
6.00360180090045,1.0009709917429743
6.017308654327163,1.0004680060842308
6.031015507753876,0.9990153435012049
6.04472236118059,0.9979974792578059
6.058429214607303,0.9970973941212736
6.072136068034016,0.9962702808674615
6.0858429214607295,0.995426119215514
6.099549774887443,0.9933812162924256
6.113256628314156,0.9932342969334701
6.12696348174087,0.9938301483893957
6.1406703351675835,0.9940280897314883
6.154377188594297,0.9931280403514456
6.16808404202101,0.9954851156575532
6.181790895447723,0.9953477989133185
6.195497748874437,0.9967921452769156
6.20920460230115,0.9980815084270906
6.222911455727863,0.9999081955727807
6.236618309154577,1.001613377899408
6.25032516258129,1.002990898390517
6.264032016008003,1.0049031640185222
6.2777388694347165,1.0053874235318818
6.29144572286143,1.0074614026298832
6.305152576288143,1.0060326953042809
6.318859429714857,1.008682778291451
6.3325662831415706,1.008410859954277
6.346273136568284,1.0085201160872503
6.359979989994997,1.0078870973275615
6.37368684342171,1.0063505422326553
6.387393696848424,1.005026005279505
6.401100550275137,1.003918008805186
6.41480740370185,1.0021106737344443
6.428514257128564,1.001031143164554
6.442221110555277,0.9982577173293457
6.45592796398199,0.9969702817145359
6.4696348174087035,0.9941105373715335
6.483341670835417,0.993101678325605
6.49704852426213,0.9919584358704022
6.510755377688843,0.9905288004467412
6.524462231115558,0.9899045988839325
6.538169084542271,0.9894236557465347
6.551875937968984,0.989781919946844
6.5655827913956974,0.9901058850105005
6.579289644822411,0.9911438850998683
6.592996498249124,0.9921138783631898
6.606703351675837,0.9937946830579956
6.620410205102551,0.9961782624253461
6.634117058529264,0.9986618276080113
6.647823911955977,1.0007510949404361
6.6615307653826905,1.0031853308761023
6.675237618809404,1.005315413787133
6.688944472236117,1.007240669176855
6.70265132566283,1.009073972561081
6.716358179089544,1.0109321118129941
6.730065032516258,1.0105288691804446
6.743771885942971,1.0117378169898834
6.7574787393696845,1.0117693432347468
6.771185592796398,1.0114142616939974
6.784892446223111,1.010324249293055
6.798599299649824,1.0090688834124366
6.812306153076538,1.0068964989178522
6.826013006503251,1.005036564825118
6.839719859929964,1.001888546703045
6.8534267133566775,0.9998735117177802
6.867133566783391,0.9967881661566802
6.880840420210104,0.9934202568057804
6.894547273636817,0.9918064238793396
6.908254127063531,0.989890962071629
6.921960980490245,0.9883628286668326
6.935667833916958,0.9840503811577931
6.9493746873436715,0.9865533011800978
6.963081540770385,0.986383864888484
6.976788394197098,0.9862432146677926
6.990495247623811,0.9874878608682444
7.004202101050525,0.9899083026468667
7.017908954477238,0.9917331169798268
7.031615807903951,0.9942036614487011
7.0453226613306645,0.9968510902182514
7.059029514757378,0.9998194839688697
7.072736368184091,1.0023272567599335
7.086443221610804,1.0049965625091866
7.100150075037518,1.0082497504312666
7.113856928464231,1.0099391452536515
7.127563781890945,1.0125287930322349
7.1412706353176585,1.0147653605687692
7.154977488744372,1.015159570926371
7.168684342171085,1.0149075409953898
7.182391195597798,1.0157398532269653
7.196098049024512,1.014062871102697
7.209804902451225,1.0116373446093687
7.223511755877938,1.0097719041819855
7.2372186093046516,1.0072299943212464
7.250925462731365,1.0032305378458752
7.264632316158078,1.001747179951881
7.278339169584791,0.9981024453195319
7.292046023011505,0.9942695590493233
7.305752876438218,0.9914293259452445
7.319459729864932,0.9888005599938174
7.3331665832916455,0.9861942660674142
7.346873436718359,0.9836542586307757
