time,flux
0.0,1.008877350748689
0.013706853426713355,0.9998360424700901
0.02741370685342671,0.9925015224451056
0.041120560280140064,0.9840071240505308
0.05482741370685342,0.9754707373309448
0.06853426713356678,0.9686174427382648
0.08224112056028013,0.9639556585184612
0.09594797398699349,0.9582447007098145
0.10965482741370684,0.9560853440231455
0.1233616808404202,0.9550396391774767
0.13706853426713356,0.9562284246861146
0.1507753876938469,0.9581125382843895
0.16448224112056026,0.9640544529417727
0.1781890945472736,0.9674490351467244
0.19189594797398699,0.9756744972186011
0.20560280140070034,0.9846362068837632
0.21930965482741369,0.9940600410750747
0.23301650825412704,1.0025182025969752
0.2467233616808404,1.0133856902644562
0.26043021510755376,1.0210901661372
0.2741370685342671,1.027060607244668
0.28784392196098046,1.0342611797539358
0.3015507753876938,1.0399661137180058
0.31525762881440716,1.0437009205054018
0.3289644822411205,1.044086210575611
0.34267133566783387,1.0434813303113426
0.3563781890945472,1.0415917615079027
0.3700850425212606,1.0360863096927106
0.38379189594797397,1.0315773224030282
0.3974987493746873,1.0254538348309081
0.41120560280140067,1.0172840180219749
0.424912456228114,1.0115104716811085
0.43861930965482737,1.0014809288018045
0.4523261630815407,0.9940896678781943
0.46603301650825407,0.9859685623141573
0.4797398699349674,0.9805190856046844
0.4934467233616808,0.9754318080789001
0.5071535767883941,0.9697741444156728
0.5208604302151075,0.965451396005588
0.5345672836418208,0.9671851107153492
0.5482741370685342,0.9663521063671453
0.5619809904952475,0.9688323621678288
0.5756878439219609,0.9716636921419227
0.5893946973486743,0.975247581526483
0.6031015507753876,0.9803250373523591
0.616808404202101,0.987490902636101
0.6305152576288143,0.9909093935060463
0.6442221110555277,0.9982211674567918
0.657928964482241,1.0028509624791306
0.6716358179089544,1.0072928254402809
0.6853426713356677,1.0131534826341912
0.6990495247623811,1.0142609452638027
0.7127563781890944,1.017903116918765
0.7264632316158078,1.018871112089686
0.7401700850425212,1.0170098191004429
0.7538769384692345,1.016429999573987
0.7675837918959479,1.0137753021241465
0.7812906453226612,1.0133090478865943
0.7949974987493746,1.0094044223304686
0.8087043521760879,1.006873749074006
0.8224112056028013,1.0030627100318155
0.8361180590295146,0.9991660949577442
0.849824912456228,0.9974698843422746
0.8635317658829413,0.9950233482298504
0.8772386193096547,0.9946249524752473
0.8909454727363681,0.9937420972834385
0.9046523261630814,0.9945496145934107
0.9183591795897948,0.9966605837186412
0.9320660330165081,0.9979992150078584
0.9457728864432215,0.9993046910107654
0.9594797398699348,1.0026900078775038
0.9731865932966483,1.0042764526645496
0.9868934467233615,1.0090835065429258
1.000600300150075,1.0101338968286724
1.0143071535767882,1.0123740319230015
1.0280140070035018,1.0141124392157348
1.041720860430215,1.0140677443261878
1.0554277138569284,1.013449567158081
1.0691345672836416,1.0131336636573598
1.0828414207103552,1.0098047731752373
1.0965482741370685,1.0073782624698542
1.1102551275637818,1.0012177527024795
1.123961980990495,0.996482597059979
1.1376688344172086,0.9929704649448732
1.1513756878439219,0.9858424654602461
1.1650825412706352,0.9835276744818913
1.1787893946973487,0.9786159598187691
1.192496248124062,0.9752602136407454
1.2062031015507753,0.9712019018666702
1.2199099549774886,0.9696553599373406
1.233616808404202,0.9685562993608414
1.2473236618309154,0.9698674785779422
1.2610305152576287,0.972817388478
1.274737368684342,0.9763326641965795
1.2884442221110555,0.9815152991519709
1.3021510755377688,0.9874443933999876
1.315857928964482,0.9941340883438623
1.3295647823911956,1.0010998284789192
1.3432716358179089,1.0087882417672125
1.3569784892446222,1.018646757339316
1.3706853426713355,1.0254276995468048
1.384392196098049,1.0315573557659583
1.3980990495247623,1.036856108176955
1.4118059029514756,1.0395587702558893
1.4255127563781889,1.0426203288160376
1.4392196098049024,1.0426240885499083
1.4529264632316157,1.0420234873629644
1.466633316658329,1.0381128169366236
1.4803401700850425,1.0346049918042077
1.4940470235117558,1.028277656795749
1.507753876938469,1.0203204960023504
1.5214607303651824,1.0117962447815738
1.5351675837918959,1.0035980820884094
1.5488744372186092,0.9929282812547159
1.5625812906453225,0.984035818294895
1.5762881440720358,0.9751125621993947
1.5899949974987493,0.9691444190180261
1.6037018509254626,0.9604435009719381
1.6174087043521759,0.9573450378376978
1.6311155577788894,0.9540495186813298
1.6448224112056027,0.9532810264751926
1.658529264632316,0.9531968812452952
1.6722361180590293,0.9564633169215238
1.6859429714857428,0.9601959010280038
1.699649824912456,0.9673339970616509
1.7133566783391694,0.9750148486206436
1.7270635317658827,0.9831912980910834
1.7407703851925962,0.992092947043886
1.7544772386193095,1.0005004572203529
1.7681840920460228,1.010503085379703
1.7818909454727363,1.0176759565863893
1.7955977988994496,1.0266088764164163
1.8093046523261629,1.0305256305664956
1.8230115057528762,1.0369166787570168
1.8367183591795897,1.0403888270385748
1.850425212606303,1.041497705039039
1.8641320660330163,1.040950357257034
1.8778389194597296,1.038218359630502
1.891545772886443,1.035221378795399
1.9052526263131564,1.03028347882662
1.9189594797398697,1.0258615054490332
1.9326663331665832,1.0188359393676516
1.9463731865932965,1.010280549521956
1.9600800400200098,1.0030633449348043
1.973786893446723,0.997998188862796
1.9874937468734366,0.9901204516436609
2.00120060030015,0.9835176379621751
2.014907453726863,0.9793424094762923
2.0286143071535765,0.97706008820068
2.04232116058029,0.9754203069267857
2.0560280140070035,0.9738054010513378
2.069734867433717,0.9735694107424998
2.08344172086043,0.9748496821954883
2.0971485742871434,0.9779699175147111
2.1108554277138567,0.9810795961563763
2.12456228114057,0.983141542270159
2.1382691345672833,0.9892499850235403
2.1519759879939966,0.993057479091708
2.1656828414207103,0.9965031332639808
2.1793896948474236,1.00074774569088
2.193096548274137,1.0051624523446379
2.20680340170085,1.0065618792099602
2.2205102551275635,1.007586963226093
2.234217108554277,1.0090852038006968
2.24792396198099,1.009466945955144
2.261630815407704,1.0074345703572811
2.275337668834417,1.0071126624613105
2.2890445222611304,1.0048102580307383
2.3027513756878437,1.0044275188639729
2.316458229114557,1.0007275204321695
2.3301650825412703,0.9979765966433121
2.3438719359679836,0.9969827888679395
2.3575787893946973,0.9958932964549719
2.3712856428214106,0.9953755060974928
2.384992496248124,0.995672420067111
2.3986993496748372,0.9968231182936167
2.4124062031015505,0.9968397354727285
2.426113056528264,1.000885374551663
2.439819909954977,1.001470039781281
2.4535267633816904,1.006948519877792
2.467233616808404,1.0077439092813363
2.4809404702351174,1.0132414074365206
2.4946473236618307,1.0155577554903605
2.508354177088544,1.0185121054720911
2.5220610305152573,1.0204521271790343
2.5357678839419706,1.021354935904081
2.549474737368684,1.0218493484171407
2.5631815907953976,1.019858028485543
2.576888444222111,1.0167007026050983
2.5905952976488242,1.0124669407436886
2.6043021510755375,1.0107125835589597
2.618009004502251,1.0039407544107304
2.631715857928964,0.9987474180436986
2.6454227113556774,0.9921074860141246
2.659129564782391,0.9856652829527431
2.6728364182091044,0.9799944075652774
2.6865432716358177,0.9738784769812778
2.700250125062531,0.9687244662912587
2.7139569784892443,0.9644982398828862
2.7276638319159576,0.9626918139476192
2.741370685342671,0.9622433981577043
2.755077538769384,0.96225487082981
2.768784392196098,0.9645479166743001
2.7824912456228112,0.9670333734081474
2.7961980990495245,0.973920760380927
2.809904952476238,0.9811127749476769
2.823611805902951,0.9889238903321258
2.8373186593296644,0.9975147713271049
2.8510255127563777,1.006283031238583
2.8647323661830915,1.0155146242166275
2.8784392196098048,1.024072347926163
2.892146073036518,1.0324021449665162
2.9058529264632313,1.0390263330317304
2.9195597798899446,1.0430092589613316
2.933266633316658,1.046666571466886
2.9469734867433712,1.046952556136542
2.960680340170085,1.0482394327399507
2.9743871935967983,1.0457387744175752
2.9880940470235116,1.041931623793932
3.001800900450225,1.0351285359647782
3.015507753876938,1.029129543530996
3.0292146073036514,1.018249373278629
3.0429214607303647,1.0090714805946652
3.056628314157078,1.0015769064365354
3.0703351675837918,0.9908340298732085
3.084042021010505,0.9803643311201987
3.0977488744372184,0.9730240462555115
3.1114557278639317,0.9649131110615491
3.125162581290645,0.9586036476496121
3.1388694347173582,0.9540709946136101
3.1525762881440715,0.9518555210126297
3.1662831415707853,0.9514763858372973
3.1799899949974986,0.950568307852589
3.193696848424212,0.9551383297649986
3.207403701850925,0.9610253352325292
3.2211105552776385,0.9678027420879869
3.2348174087043517,0.9738101845954847
3.248524262131065,0.9837715172982383
3.262231115557779,0.9944809067167049
3.275937968984492,1.0022665933820452
3.2896448224112054,1.0113709472571264
3.3033516758379187,1.0207197229236697
3.317058529264632,1.0266367829601812
3.3307653826913453,1.0324375955865654
3.3444722361180586,1.035487942845334
3.358179089544772,1.0384065169548435
3.3718859429714856,1.0418039775163321
3.385592796398199,1.039105918074959
3.399299649824912,1.0364022605270387
3.4130065032516255,1.032823919057492
3.4267133566783388,1.0287134542180703
3.440420210105052,1.0221268851125995
3.4541270635317654,1.0145943821875676
3.467833916958479,1.0104358384671237
3.4815407703851924,1.001791299283592
3.4952476238119057,0.9964500050460131
3.508954477238619,0.9905828351495269
3.5226613306653323,0.986369429425117
3.5363681840920456,0.9822761281431966
3.550075037518759,0.9780746840315414
3.5637818909454726,0.9787334502264559
3.577488744372186,0.9769737485914564
3.591195597798899,0.9770381000446099
3.6049024512256125,0.979730078598251
3.6186093046523258,0.9812857952196268
3.632316158079039,0.9843703950466683
3.6460230115057524,0.9899931670584747
3.659729864932466,0.9927248179386968
3.6734367183591794,0.9958266340909385
3.6871435717858927,0.9995194368211411
3.700850425212606,1.0009150645555216
3.7145572786393193,1.003146373442426
3.7282641320660326,1.004382009889435
3.741970985492746,1.0060749595055307
3.755677838919459,1.003966351164004
3.769384692346173,1.0036113412837622
3.783091545772886,1.0028153091933871
3.7967983991995995,1.001222987974217
3.810505252626313,0.9998697653846589
3.824212106053026,0.9977230180841519
3.8379189594797394,0.9962972413304166
3.8516258129064527,0.9943164220528874
3.8653326663331664,0.9936677739199983
3.8790395197598797,0.993717384203629
3.892746373186593,0.9946330141876589
3.9064532266133063,0.9948091312573281
3.9201600800400196,0.9960283809685543
3.933866933466733,1.0005563720723019
3.947573786893446,1.003286672687018
3.96128064032016,1.006463291754152
3.974987493746873,1.0118539091856875
3.9886943471735865,1.0145013828935567
4.0024012006003,1.0179541551081424
4.016108054027013,1.0221114465391963
4.029814907453726,1.0239928527919548
4.04352176088044,1.0250160793502112
4.057228614307153,1.0248288242959915
4.070935467733866,1.0242350342034776
4.08464232116058,1.0218332582722476
4.098349174587293,1.0191292665926375
4.112056028014007,1.0146266875825023
4.12576288144072,1.0089564381653646
4.139469734867434,1.0023343344709192
4.153176588294147,0.994397915213495
4.16688344172086,0.9896740275341042
4.1805902951475735,0.9816759103830357
4.194297148574287,0.9755028263996972
4.208004002001,0.9694322375967913
4.221710855427713,0.9652387782726427
4.235417708854427,0.962120314532242
4.24912456228114,0.9593394081255431
4.262831415707853,0.9594805179585554
4.276538269134567,0.9612582913438361
4.29024512256128,0.9647694454600443
4.303951975987993,0.9683326770655966
4.317658829414707,0.9745611037470928
4.331365682841421,0.9824808023870887
4.345072536268134,0.9924563976463816
4.358779389694847,0.9987068531230981
4.3724862431215605,1.0088517125525251
4.386193096548274,1.0162247331725602
4.399899949974987,1.0268197160170593
4.4136068034017,1.0343111365750055
4.427313656828414,1.040952877240246
4.441020510255127,1.044187604864199
4.45472736368184,1.0458332107785149
4.468434217108554,1.0485359494617676
4.482141070535267,1.0467965324868844
4.49584792396198,1.0444265139475315
4.5095547773886935,1.038820301171521
4.523261630815408,1.0325564000283631
4.536968484242121,1.0255381709078297
4.550675337668834,1.016095575435674
4.5643821910955475,1.0072671086510467
4.578089044522261,0.9967474884122618
4.591795897948974,0.9889309746021665
4.605502751375687,0.9794233872267033
4.619209604802401,0.9715700253029039
4.632916458229114,0.9643346765094963
4.646623311655827,0.9593117227751884
4.660330165082541,0.956300448586425
4.674037018509254,0.9553531398969506
4.687743871935967,0.9564375503134722
4.7014507253626805,0.9578741853193774
4.715157578789395,0.9610947423744259
4.728864432216108,0.9666274024174504
4.742571285642821,0.9740660896319464
4.756278139069535,0.9829768407890042
4.769984992496248,0.990609418645803
4.783691845922961,0.9971032289239189
4.7973986993496744,1.006897716913101
4.811105552776388,1.0137026947747796
4.824812406203101,1.0192575194775897
4.838519259629814,1.0248871304862226
4.852226113056528,1.0301783790680037
4.865932966483241,1.0322160219404852
4.879639819909954,1.0341655165025754
4.8933466733366675,1.0334835650122813
4.907053526763381,1.031647378554506
4.920760380190095,1.0282940642243803
4.934467233616808,1.023840784099111
4.948174087043522,1.019261053954282
4.961880940470235,1.0145685256863473
4.975587793896948,1.0089501659131364
4.9892946473236615,1.0031363238875222
5.003001500750375,0.9996044615132367
5.016708354177088,0.9932859343279226
5.030415207603801,0.9899425867852912
5.044122061030515,0.9870429087113927
5.057828914457228,0.9843320442680366
5.071535767883941,0.9839478830319195
5.0852426213106545,0.9824234754654884
5.098949474737368,0.9847502492914932
5.112656328164081,0.9854476574380311
5.126363181590795,0.9883333057299857
5.140070035017509,0.9916707717233453
5.153776888444222,0.9938391400761182
5.167483741870935,0.9977659848548893
5.1811905952976485,1.0003536531667554
5.194897448724362,1.0048278262423145
5.208604302151075,1.0039643091703176
5.222311155577788,1.005161896374127
5.236018009004502,1.0070850305172079
5.249724862431215,1.0058082094061787
5.263431715857928,1.0052301858622508
5.2771385692846415,1.001886047733789
5.290845422711355,1.0002349580478629
5.304552276138068,0.9976566044197743
5.318259129564782,0.9926847579124422
5.331965982991496,0.9924830085118944
5.345672836418209,0.9880122734162817
5.359379689844922,0.9866559911309853
5.3730865432716355,0.9863276577309473
5.386793396698349,0.9852171239627983
5.400500250125062,0.986187835049171
5.414207103551775,0.9883055332276153
5.427913956978489,0.9903056371310717
5.441620810405202,0.99173084328981
5.455327663831915,0.998238312526666
5.4690345172586285,1.0024196329221917
5.482741370685342,1.0076897461810574
5.496448224112055,1.0113825088630821
5.510155077538768,1.0173654858045291
5.523861930965483,1.021957542038004
5.537568784392196,1.024984793929932
5.551275637818909,1.030574427399393
5.5649824912456225,1.0304379112720907
5.578689344672336,1.0310970443157998
5.592396198099049,1.028877485224418
5.606103051525762,1.0277475345353753
5.619809904952476,1.0255191697802601
5.633516758379189,1.0196362029316617
5.647223611805902,1.0120229521403028
5.660930465232616,1.0045005468611388
5.674637318659329,0.9972398531729757
5.688344172086042,0.9902708324624014
5.7020510255127554,0.9809666037950102
5.71575787893947,0.9747001198157501
5.729464732366183,0.9695759947603825
5.743171585792896,0.9637729753076463
5.7568784392196095,0.9593524833892001
5.770585292646323,0.9561687925880905
5.784292146073036,0.9580110365377266
5.797998999499749,0.9583729611646021
5.811705852926463,0.9615237833812001
5.825412706353176,0.9654406399240711
5.839119559779889,0.9731858844012001
5.852826413206603,0.9796974249744387
5.866533266633316,0.989221232048626
5.880240120060029,0.9987665393301728
5.8939469734867425,1.007319495264502
5.907653826913456,1.0167445139228335
5.92136068034017,1.0246294960305822
5.935067533766883,1.0313550673540153
5.9487743871935965,1.0379712176437645
5.96248124062031,1.0427772934048365
5.976188094047023,1.0447529968178049
5.989894947473736,1.0454861977953798
6.00360180090045,1.0439974534734366
6.017308654327163,1.0407999087529927
6.031015507753876,1.0379224331519301
6.04472236118059,1.0326022655534934
6.058429214607303,1.0246628531415605
6.072136068034016,1.0157320611503888
6.0858429214607295,1.0074992945887447
6.099549774887443,1.0004252817726595
6.113256628314156,0.9897915063826654
6.12696348174087,0.9824526036621346
6.1406703351675835,0.9748064963923652
6.154377188594297,0.970319556105586
6.16808404202101,0.9650221001480934
6.181790895447723,0.9617630257544278
6.195497748874437,0.9601103551957797
6.20920460230115,0.9629898255957305
6.222911455727863,0.9649671110819681
6.236618309154577,0.968107845125557
6.25032516258129,0.9727321555290589
6.264032016008003,0.9786847223933249
6.2777388694347165,0.9848426685222323
6.29144572286143,0.991141983503608
6.305152576288143,0.9990676671853453
6.318859429714857,1.0040120918705213
6.3325662831415706,1.0103218978890618
6.346273136568284,1.0155699568457845
6.359979989994997,1.0196722491875678
6.37368684342171,1.022461561901394
6.387393696848424,1.0239118877943871
6.401100550275137,1.0226943673518119
6.41480740370185,1.022690469527679
6.428514257128564,1.0207958792822125
6.442221110555277,1.0179352938588464
6.45592796398199,1.0142819291545997
6.4696348174087035,1.0121410475446169
6.483341670835417,1.006041329814435
6.49704852426213,1.004534861650306
6.510755377688843,0.9989315761300467
6.524462231115558,0.9969487424985142
6.538169084542271,0.9942641013015102
6.551875937968984,0.9926202153541999
6.5655827913956974,0.9923930742957959
6.579289644822411,0.9922877217670476
6.592996498249124,0.9933608320047617
6.606703351675837,0.9927540579337122
6.620410205102551,0.996704691253717
6.634117058529264,0.9970268646034517
6.647823911955977,1.001421307821416
6.6615307653826905,1.0017346291670355
6.675237618809404,1.0052983727421154
6.688944472236117,1.0079307749433204
6.70265132566283,1.0087247445691025
6.716358179089544,1.0084718959167631
6.730065032516258,1.0081048257375402
6.743771885942971,1.0067982032770584
6.7574787393696845,1.0048793612689664
6.771185592796398,1.0016456332465364
6.784892446223111,0.9992446233093926
6.798599299649824,0.9946064265462132
6.812306153076538,0.9906589864983574
6.826013006503251,0.9867666368250325
6.839719859929964,0.9815047016881803
6.8534267133566775,0.978529918432681
6.867133566783391,0.9780742167207285
6.880840420210104,0.9759252587979941
6.894547273636817,0.97582003426745
6.908254127063531,0.975881613973161
6.921960980490245,0.9795051580901711
6.935667833916958,0.9812474920335966
6.9493746873436715,0.9862832671837806
6.963081540770385,0.9923774544961904
6.976788394197098,0.9979196929781926
6.990495247623811,1.0046310151148437
7.004202101050525,1.0117750739176996
7.017908954477238,1.0192924905082985
7.031615807903951,1.0240834421220693
7.0453226613306645,1.0313075202156365
7.059029514757378,1.0353441806683816
7.072736368184091,1.0379121615555842
7.086443221610804,1.040376403821651
7.100150075037518,1.0407926485404897
7.113856928464231,1.0368386721600003
7.127563781890945,1.0340016722167278
7.1412706353176585,1.0297195725194892
7.154977488744372,1.0216011812693293
7.168684342171085,1.0155137218020789
7.182391195597798,1.0069861894987822
7.196098049024512,0.9977844292076583
7.209804902451225,0.9885038916919148
7.223511755877938,0.9792994626318996
7.2372186093046516,0.9731702049977424
7.250925462731365,0.963700026761062
7.264632316158078,0.9586709359291866
7.278339169584791,0.9552479828687309
7.292046023011505,0.9534239966962513
7.305752876438218,0.9519756815871181
7.319459729864932,0.9540079184719283
7.3331665832916455,0.9570546459452836
7.346873436718359,0.963137122821449
