time,flux
0.0,1.0037361148793777
0.013706853426713355,1.0126975636551727
0.02741370685342671,1.0212944182964934
0.041120560280140064,1.028565318490066
0.05482741370685342,1.0330854449983853
0.06853426713356678,1.037642680733379
0.08224112056028013,1.0407110826253627
0.09594797398699349,1.0428941752935317
0.10965482741370684,1.0411204994137149
0.1233616808404202,1.0398793488709437
0.13706853426713356,1.0349810207821928
0.1507753876938469,1.0291177883920721
0.16448224112056026,1.0213198879004937
0.1781890945472736,1.016224256107703
0.19189594797398699,1.0042299202789617
0.20560280140070034,0.9957701329031645
0.21930965482741369,0.986296495266603
0.23301650825412704,0.9800492293602687
0.2467233616808404,0.9713619899014397
0.26043021510755376,0.9647358890307942
0.2741370685342671,0.9623097199155415
0.28784392196098046,0.959701486536329
0.3015507753876938,0.959265562003756
0.31525762881440716,0.9615987252944049
0.3289644822411205,0.9631929086936809
0.34267133566783387,0.9664264683190882
0.3563781890945472,0.9740398317274317
0.3700850425212606,0.9792831534800533
0.38379189594797397,0.9882821686295058
0.3974987493746873,0.995804848919981
0.41120560280140067,1.0029287569940448
0.424912456228114,1.0085830878400142
0.43861930965482737,1.017066829980814
0.4523261630815407,1.0213926209700408
0.46603301650825407,1.025064004820036
0.4797398699349674,1.0293401504060187
0.4934467233616808,1.0295562436395598
0.5071535767883941,1.0290550095204405
0.5208604302151075,1.0293226254046244
0.5345672836418208,1.0254080050843577
0.5482741370685342,1.022188318408325
0.5619809904952475,1.0170099746063272
0.5756878439219609,1.0126523052903813
0.5893946973486743,1.0089197780491395
0.6031015507753876,1.0049728076616384
0.616808404202101,1.0006955812700191
0.6305152576288143,0.9960364275219522
0.6442221110555277,0.9929707288429065
0.657928964482241,0.990566114743184
0.6716358179089544,0.9903830919281
0.6853426713356677,0.9893647242697376
0.6990495247623811,0.98892821543154
0.7127563781890944,0.989509040496966
0.7264632316158078,0.9911037463685507
0.7401700850425212,0.9907270846164042
0.7538769384692345,0.9911918105279012
0.7675837918959479,0.9922772218427256
0.7812906453226612,0.9940552898720929
0.7949974987493746,0.9950693678087627
0.8087043521760879,0.9942456646431667
0.8224112056028013,0.993689799580138
0.8361180590295146,0.9948291653328664
0.849824912456228,0.9913103809676413
0.8635317658829413,0.9916422247262502
0.8772386193096547,0.9910439550378477
0.8909454727363681,0.9898486873417242
0.9046523261630814,0.9910718448337047
0.9183591795897948,0.9885424555605727
0.9320660330165081,0.9898534373032516
0.9457728864432215,0.9897381136223594
0.9594797398699348,0.9939683098957388
0.9731865932966483,0.996091218768581
0.9868934467233615,0.9992769179361396
1.000600300150075,1.003840422332138
1.0143071535767882,1.0075049579211737
1.0280140070035018,1.0138806792465394
1.041720860430215,1.0169552111896627
1.0554277138569284,1.0209653805126107
1.0691345672836416,1.0262257692652157
1.0828414207103552,1.0278518134995152
1.0965482741370685,1.0297751449001216
1.1102551275637818,1.029520519895907
1.123961980990495,1.0280758400617753
1.1376688344172086,1.0251060353901817
1.1513756878439219,1.023118366639416
1.1650825412706352,1.0174117480082887
1.1787893946973487,1.0113073779999473
1.192496248124062,1.0046112437250314
1.2062031015507753,0.995871159133219
1.2199099549774886,0.987581381109512
1.233616808404202,0.9804518488676631
1.2473236618309154,0.9750782871943631
1.2610305152576287,0.9682912584532308
1.274737368684342,0.964453959524847
1.2884442221110555,0.9602696661039269
1.3021510755377688,0.9596475851748758
1.315857928964482,0.959155917106361
1.3295647823911956,0.9601336598903113
1.3432716358179089,0.9646475734851312
1.3569784892446222,0.9705427050859873
1.3706853426713355,0.976303485568343
1.384392196098049,0.9863093005578871
1.3980990495247623,0.9946174593899979
1.4118059029514756,1.002947247239349
1.4255127563781889,1.0126497007925004
1.4392196098049024,1.02135389484511
1.4529264632316157,1.0297375482480056
1.466633316658329,1.036088219833643
1.4803401700850425,1.0400241277903672
1.4940470235117558,1.0431125019493475
1.507753876938469,1.0446484021982183
1.5214607303651824,1.0422055997995332
1.5351675837918959,1.0412365563426136
1.5488744372186092,1.0350241510251053
1.5625812906453225,1.030114391756492
1.5762881440720358,1.0222706651088747
1.5899949974987493,1.0141647216107335
1.6037018509254626,1.0052946967935183
1.6174087043521759,0.9973226329374651
1.6311155577788894,0.9891036586790949
1.6448224112056027,0.9806855466848325
1.658529264632316,0.9745497860191055
1.6722361180590293,0.9695746135765687
1.6859429714857428,0.9658731722561918
1.699649824912456,0.963206188004362
1.7133566783391694,0.9642304200302529
1.7270635317658827,0.964832293274068
1.7407703851925962,0.9681943999338758
1.7544772386193095,0.9719288768047034
1.7681840920460228,0.9755268994229902
1.7818909454727363,0.9815628489547866
1.7955977988994496,0.9900025965293302
1.8093046523261629,0.9948364802342676
1.8230115057528762,0.9993059294727522
1.8367183591795897,1.0051932677077386
1.850425212606303,1.010352265255661
1.8641320660330163,1.015184095760885
1.8778389194597296,1.0170958513525663
1.891545772886443,1.0185188098044535
1.9052526263131564,1.020690300736746
1.9189594797398697,1.020624540588352
1.9326663331665832,1.0178208482410174
1.9463731865932965,1.0167023581360741
1.9600800400200098,1.016049703237545
1.973786893446723,1.0125090388540947
1.9874937468734366,1.0114107567133013
2.00120060030015,1.0091069846242429
2.014907453726863,1.006329198228709
2.0286143071535765,1.00415615268877
2.04232116058029,1.001489617706185
2.0560280140070035,1.0022477944388473
2.069734867433717,1.0003757937772146
2.08344172086043,1.0014922456845112
2.0971485742871434,1.0004327389252348
2.1108554277138567,1.0006890088300184
2.12456228114057,1.0015990508062025
2.1382691345672833,1.0014870799470104
2.1519759879939966,0.9996146708531691
2.1656828414207103,0.9986923674472322
2.1793896948474236,0.9974289652978225
2.193096548274137,0.9956283288685945
2.20680340170085,0.9940916160804969
2.2205102551275635,0.9906834111884699
2.234217108554277,0.9884780386031375
2.24792396198099,0.9870252136410241
2.261630815407704,0.9845045748341588
2.275337668834417,0.9805550986621323
2.2890445222611304,0.980178507838818
2.3027513756878437,0.9791084541465747
2.316458229114557,0.9788307108081694
2.3301650825412703,0.979283268676318
2.3438719359679836,0.9814211150539706
2.3575787893946973,0.9845071119606923
2.3712856428214106,0.98902967398105
2.384992496248124,0.9923410527004569
2.3986993496748372,0.9990782007825252
2.4124062031015505,1.0045646136756343
2.426113056528264,1.010594376144951
2.439819909954977,1.017652882809073
2.4535267633816904,1.0214799298122401
2.467233616808404,1.0285569720278245
2.4809404702351174,1.0322544505059341
2.4946473236618307,1.0340918229899827
2.508354177088544,1.0344862531915162
2.5220610305152573,1.0345342534255746
2.5357678839419706,1.0348231202028768
2.549474737368684,1.0291827522010148
2.5631815907953976,1.0240084024243954
2.576888444222111,1.018681144724217
2.5905952976488242,1.0119241694108867
2.6043021510755375,1.0032617593463986
2.618009004502251,0.9957881315458891
2.631715857928964,0.9867664786376134
2.6454227113556774,0.9793803420072018
2.659129564782391,0.971565905174598
2.6728364182091044,0.9663571812136488
2.6865432716358177,0.9614560086304773
2.700250125062531,0.9596720683213881
2.7139569784892443,0.9580545464735752
2.7276638319159576,0.9605875431909882
2.741370685342671,0.962224885317361
2.755077538769384,0.9677886055664252
2.768784392196098,0.9724999570813394
2.7824912456228112,0.9787748624752164
2.7961980990495245,0.9866593917082832
2.809904952476238,0.9948926909702328
2.823611805902951,1.0027239932847152
2.8373186593296644,1.0110043092563004
2.8510255127563777,1.0196531309276309
2.8647323661830915,1.0243885538339383
2.8784392196098048,1.0305240378980494
2.892146073036518,1.0332091294530268
2.9058529264632313,1.0354546258688582
2.9195597798899446,1.036668757772023
2.933266633316658,1.0350060350160788
2.9469734867433712,1.032909632669169
2.960680340170085,1.0301594277827952
2.9743871935967983,1.02434737921779
2.9880940470235116,1.017779785209773
3.001800900450225,1.0129241410111054
3.015507753876938,1.0055540122024718
3.0292146073036514,0.9992037371707084
3.0429214607303647,0.9946734623281795
3.056628314157078,0.9892107472833586
3.0703351675837918,0.9850345379144052
3.084042021010505,0.9822403008452892
3.0977488744372184,0.978340650628432
3.1114557278639317,0.9773878623577835
3.125162581290645,0.9776086184946596
3.1388694347173582,0.9766347006146803
3.1525762881440715,0.9803579095275647
3.1662831415707853,0.9828403561127734
3.1799899949974986,0.9836261060393333
3.193696848424212,0.9856639513991937
3.207403701850925,0.9889826197569151
3.2211105552776385,0.991857563487663
3.2348174087043517,0.9943992995148458
3.248524262131065,0.9962322508573069
3.262231115557779,0.9980833403606928
3.275937968984492,0.9987643253856635
3.2896448224112054,1.0021502787645369
3.3033516758379187,1.0023093214294494
3.317058529264632,1.0037518927293094
3.3307653826913453,1.0045725954920492
3.3444722361180586,1.004283498403384
3.358179089544772,1.0075516082306135
3.3718859429714856,1.006716082177577
3.385592796398199,1.0086772985463286
3.399299649824912,1.0095793371195658
3.4130065032516255,1.0098440942225224
3.4267133566783388,1.0118474293729134
3.440420210105052,1.0143019976569856
3.4541270635317654,1.0148909248322568
3.467833916958479,1.0171237749098305
3.4815407703851924,1.0166450630809678
3.4952476238119057,1.0175513795991666
3.508954477238619,1.0176083760852963
3.5226613306653323,1.0157090490889633
3.5363681840920456,1.0139888142674653
3.550075037518759,1.0125933131737457
3.5637818909454726,1.0094775928805806
3.577488744372186,1.0047067506075866
3.591195597798899,0.9996890649536743
3.6049024512256125,0.9940523413779452
3.6186093046523258,0.9894257164218353
3.632316158079039,0.9839594403361341
3.6460230115057524,0.9787656979962067
3.659729864932466,0.9760245646754849
3.6734367183591794,0.9706606152818624
3.6871435717858927,0.9678980342156314
3.700850425212606,0.9670569387039512
3.7145572786393193,0.9679789462129528
3.7282641320660326,0.9696083881020668
3.741970985492746,0.9713822897061744
3.755677838919459,0.9750202446864097
3.769384692346173,0.9826598788233839
3.783091545772886,0.9881203093177957
3.7967983991995995,0.9956697267356839
3.810505252626313,1.00390722189675
3.824212106053026,1.010330991847949
3.8379189594797394,1.019364122025312
3.8516258129064527,1.0255625940729545
3.8653326663331664,1.0305584987796121
3.8790395197598797,1.0363856563240579
3.892746373186593,1.0382364449323136
3.9064532266133063,1.0403686370543588
3.9201600800400196,1.0389238712239708
3.933866933466733,1.0373040414880288
3.947573786893446,1.0342182872199164
3.96128064032016,1.0279695673851934
3.974987493746873,1.0225329066144428
3.9886943471735865,1.0138835173720984
4.0024012006003,1.0064437039097445
4.016108054027013,0.9971593330321632
4.029814907453726,0.9905114958199741
4.04352176088044,0.9823581279343498
4.057228614307153,0.9762459966570671
4.070935467733866,0.9708137008816593
4.08464232116058,0.9657287980084855
4.098349174587293,0.9622987337325507
4.112056028014007,0.9618433272496771
4.12576288144072,0.9619502735162272
4.139469734867434,0.9675070989049519
4.153176588294147,0.9681057410091796
4.16688344172086,0.9760713690079943
4.1805902951475735,0.9797274591075659
4.194297148574287,0.9871548890367801
4.208004002001,0.9917491256403093
4.221710855427713,0.9997013383453783
4.235417708854427,1.0064893389012106
4.24912456228114,1.0106243903426353
4.262831415707853,1.015647644979667
4.276538269134567,1.0202172483174308
4.29024512256128,1.023814241379157
4.303951975987993,1.0247827968974423
4.317658829414707,1.0245908199802674
4.331365682841421,1.0235089856840485
4.345072536268134,1.0217751223606946
4.358779389694847,1.0205104200181703
4.3724862431215605,1.0170106090592372
4.386193096548274,1.0131926270964997
4.399899949974987,1.0110117183969125
4.4136068034017,1.007438722126073
4.427313656828414,1.0035177889511049
4.441020510255127,1.0006140239303858
4.45472736368184,0.9981399353663254
4.468434217108554,0.9964335793757184
4.482141070535267,0.9978125620790116
4.49584792396198,0.9944041315968382
4.5095547773886935,0.9947715065525602
4.523261630815408,0.9921216256407696
4.536968484242121,0.9938316536680342
4.550675337668834,0.9930746013740959
4.5643821910955475,0.9934901040686988
4.578089044522261,0.9938135322055681
4.591795897948974,0.9934713265561926
4.605502751375687,0.9917743194132156
4.619209604802401,0.9900398631644473
4.632916458229114,0.9913118097653155
4.646623311655827,0.9886120289849832
4.660330165082541,0.986883043167349
4.674037018509254,0.9866592305504771
4.687743871935967,0.9851064561168219
4.7014507253626805,0.9845478313155253
4.715157578789395,0.9853655795386775
4.728864432216108,0.9845684799237825
4.742571285642821,0.9875717482770399
4.756278139069535,0.9898393122192177
4.769984992496248,0.992409740054932
4.783691845922961,0.9965961937383435
4.7973986993496744,1.0017971347461847
4.811105552776388,1.0055169950196041
4.824812406203101,1.009895588822874
4.838519259629814,1.0169542781817744
4.852226113056528,1.0208094152635125
4.865932966483241,1.0256990282925549
4.879639819909954,1.0290762365975177
4.8933466733366675,1.03212227068652
4.907053526763381,1.0319142625367497
4.920760380190095,1.0317555233958648
4.934467233616808,1.030435583212769
4.948174087043522,1.0270280120167004
4.961880940470235,1.0221958939617348
4.975587793896948,1.0171213215784687
4.9892946473236615,1.0099020076441043
5.003001500750375,1.0017529152134226
5.016708354177088,0.9931340753659041
5.030415207603801,0.9861733799586466
5.044122061030515,0.9781109496009954
5.057828914457228,0.9723614122106409
5.071535767883941,0.9663387582399838
5.0852426213106545,0.9600028097314451
5.098949474737368,0.9586628560657804
5.112656328164081,0.9576211180776302
5.126363181590795,0.9576382619645093
5.140070035017509,0.9616581631081381
5.153776888444222,0.9649878278782312
5.167483741870935,0.9701363331693804
5.1811905952976485,0.978820199977417
5.194897448724362,0.9875019089607283
5.208604302151075,0.9953929445979225
5.222311155577788,1.0050789691147737
5.236018009004502,1.0122669664703974
5.249724862431215,1.0226915011045623
5.263431715857928,1.0289407660027001
5.2771385692846415,1.0352399664106104
5.290845422711355,1.0396070474137002
5.304552276138068,1.0432396470663114
5.318259129564782,1.042694683758464
5.331965982991496,1.040316207878092
5.345672836418209,1.0371804103104936
5.359379689844922,1.0324016380509828
5.3730865432716355,1.0276663808761552
5.386793396698349,1.0201098639333135
5.400500250125062,1.0105703724049078
5.414207103551775,1.0035179686017406
5.427913956978489,0.9945191880033979
5.441620810405202,0.9872900570967167
5.455327663831915,0.9815019064032562
5.4690345172586285,0.9743573667545984
5.482741370685342,0.9707161417708612
5.496448224112055,0.9682254406961479
5.510155077538768,0.96749643194609
5.523861930965483,0.9672523699973703
5.537568784392196,0.9691098587358735
5.551275637818909,0.9713552482808937
5.5649824912456225,0.9762304096186571
5.578689344672336,0.9810952651126524
5.592396198099049,0.9863901247556136
5.606103051525762,0.9908742725355233
5.619809904952476,0.9978472342750486
5.633516758379189,1.0011487917972357
5.647223611805902,1.0066848312430097
5.660930465232616,1.008615107388088
5.674637318659329,1.0104773485106902
5.688344172086042,1.0136209486244454
5.7020510255127554,1.0140101601369795
5.71575787893947,1.015027702887237
5.729464732366183,1.0147753433006899
5.743171585792896,1.0139804940707091
5.7568784392196095,1.0112021274261898
5.770585292646323,1.0101992405683184
5.784292146073036,1.0079334496124106
5.797998999499749,1.008446581481809
5.811705852926463,1.005410064278382
5.825412706353176,1.0059892462103777
5.839119559779889,1.0056368363807657
5.852826413206603,1.0045666652087195
5.866533266633316,1.0052445705432316
5.880240120060029,1.0042512180094967
5.8939469734867425,1.0057002145884355
5.907653826913456,1.0056166231273638
5.92136068034017,1.0056880535625095
5.935067533766883,1.0072626199904418
5.9487743871935965,1.0076873975327816
5.96248124062031,1.0047882612846957
5.976188094047023,1.003468659941556
5.989894947473736,1.0033590179610146
6.00360180090045,0.9986147988079753
6.017308654327163,0.9953821085791618
6.031015507753876,0.990872402490715
6.04472236118059,0.9885198013790141
6.058429214607303,0.9858233491385961
6.072136068034016,0.9806648637759039
6.0858429214607295,0.9784948133884807
6.099549774887443,0.9750442191337628
6.113256628314156,0.9735122144971589
6.12696348174087,0.9730673121830885
6.1406703351675835,0.9747442663318179
6.154377188594297,0.9761325476443325
6.16808404202101,0.9796825938504439
6.181790895447723,0.9854086963890479
6.195497748874437,0.9899737892635718
6.20920460230115,0.9969863225699316
6.222911455727863,1.0039835707367417
6.236618309154577,1.0121318148056082
6.25032516258129,1.017521058181893
6.264032016008003,1.0255141621688448
6.2777388694347165,1.0309351556275117
6.29144572286143,1.0352555830704195
6.305152576288143,1.0387145766525918
6.318859429714857,1.0406248960662525
6.3325662831415706,1.0387377157013589
6.346273136568284,1.0373218559907504
6.359979989994997,1.0343106595871399
6.37368684342171,1.0274100719443053
6.387393696848424,1.0220463079840698
6.401100550275137,1.0146057099763814
6.41480740370185,1.004174378782338
6.428514257128564,0.995457033756305
6.442221110555277,0.9857927822622733
6.45592796398199,0.9779407899040918
6.4696348174087035,0.9712856604413668
6.483341670835417,0.9646051496242758
6.49704852426213,0.9601179478372761
6.510755377688843,0.9582264548319814
6.524462231115558,0.9546384828541867
6.538169084542271,0.9560054236245469
6.551875937968984,0.9598483648607172
6.5655827913956974,0.96355069257403
6.579289644822411,0.9701041548762103
6.592996498249124,0.977461225089473
6.606703351675837,0.9850311820745892
6.620410205102551,0.9941844495651994
6.634117058529264,1.0040357967697087
6.647823911955977,1.0117713286498355
6.6615307653826905,1.0197469360822984
6.675237618809404,1.0264920587242463
6.688944472236117,1.0308769795246222
6.70265132566283,1.035604897347293
6.716358179089544,1.0378377514665005
6.730065032516258,1.038341358013799
6.743771885942971,1.0364477098216138
6.7574787393696845,1.0333063170833865
6.771185592796398,1.0292540402719836
6.784892446223111,1.0239176893264843
6.798599299649824,1.0177177883193698
6.812306153076538,1.0117262563385556
6.826013006503251,1.0056480940797494
6.839719859929964,0.9982144345015364
6.8534267133566775,0.9925156218433195
6.867133566783391,0.9866920135747081
6.880840420210104,0.9843769813240111
6.894547273636817,0.9815450151909144
6.908254127063531,0.9780512894976233
6.921960980490245,0.9778075560367306
6.935667833916958,0.976808621238341
6.9493746873436715,0.978950113137545
6.963081540770385,0.9809551466124168
6.976788394197098,0.9835102666618786
6.990495247623811,0.9852834977221526
7.004202101050525,0.9875782673348285
7.017908954477238,0.9908873941631735
7.031615807903951,0.9924652235508218
7.0453226613306645,0.994743821170579
7.059029514757378,0.9965916633509241
7.072736368184091,0.9983019174360125
7.086443221610804,1.0006096580675636
7.100150075037518,1.001683949149249
7.113856928464231,1.0009781498841768
7.127563781890945,1.0028632944469358
7.1412706353176585,1.0022901125307495
7.154977488744372,1.0028734437792637
7.168684342171085,1.0037563249484698
7.182391195597798,1.0043737012938088
7.196098049024512,1.005146085320508
7.209804902451225,1.0061540504673947
7.223511755877938,1.0062692382677905
7.2372186093046516,1.0095875525569877
7.250925462731365,1.0108959079796325
7.264632316158078,1.0138036856024384
7.278339169584791,1.0154240111681843
7.292046023011505,1.016392946740062
7.305752876438218,1.0171301655571834
7.319459729864932,1.0185247578240308
7.3331665832916455,1.018637115217991
7.346873436718359,1.0166611272826387
