time,flux
0.0,1.0037506570776178
0.013706853426713355,1.003456814380423
0.02741370685342671,1.0014915476657644
0.041120560280140064,0.9977534113481669
0.05482741370685342,0.9947144535087057
0.06853426713356678,0.9900727870593109
0.08224112056028013,0.9848293309567377
0.09594797398699349,0.9790924802194206
0.10965482741370684,0.9742176410777655
0.1233616808404202,0.970797735371077
0.13706853426713356,0.9658655631011813
0.1507753876938469,0.9645598758888579
0.16448224112056026,0.9627209571986238
0.1781890945472736,0.9611674628698591
0.19189594797398699,0.9622196564541602
0.20560280140070034,0.9646079148512315
0.21930965482741369,0.9684172946401597
0.23301650825412704,0.9720607488550252
0.2467233616808404,0.9786482570622299
0.26043021510755376,0.9828982588145049
0.2741370685342671,0.9885532875736747
0.28784392196098046,0.9945963477458429
0.3015507753876938,1.0004496571286678
0.31525762881440716,1.004949089318977
0.3289644822411205,1.0070922942065534
0.34267133566783387,1.0091044369844735
0.3563781890945472,1.0090903940104348
0.3700850425212606,1.0098505974829752
0.38379189594797397,1.0068683474810856
0.3974987493746873,1.002332977105833
0.41120560280140067,0.9993504590416361
0.424912456228114,0.9931426107521355
0.43861930965482737,0.9876908069796816
0.4523261630815407,0.981470499271798
0.46603301650825407,0.9755175871636625
0.4797398699349674,0.9725136667841616
0.4934467233616808,0.9668677704759147
0.5071535767883941,0.9651375241505004
0.5208604302151075,0.9646306599921917
0.5345672836418208,0.9651734135341414
0.5482741370685342,0.9667125839073916
0.5619809904952475,0.9700791705533418
0.5756878439219609,0.9746294660040956
0.5893946973486743,0.981368260249903
0.6031015507753876,0.9912245190304282
0.616808404202101,0.9984084356550436
0.6305152576288143,1.0081587346577368
0.6442221110555277,1.01576271047587
0.657928964482241,1.0251244824556696
0.6716358179089544,1.0323665158126316
0.6853426713356677,1.0390759175280069
0.6990495247623811,1.0445058814568642
0.7127563781890944,1.0471295925726887
0.7264632316158078,1.0484091060915806
0.7401700850425212,1.0488391815344515
0.7538769384692345,1.0475788292772479
0.7675837918959479,1.0428507661605564
0.7812906453226612,1.037245352638025
0.7949974987493746,1.032126631784157
0.8087043521760879,1.022566743197289
0.8224112056028013,1.0158257856538093
0.8361180590295146,1.0092926985817463
0.849824912456228,1.0018072179097173
0.8635317658829413,0.9970010148769087
0.8772386193096547,0.9900899383372067
0.8909454727363681,0.9862189747885511
0.9046523261630814,0.9848215423580208
0.9183591795897948,0.9845419733746189
0.9320660330165081,0.9849927545628534
0.9457728864432215,0.989581374535712
0.9594797398699348,0.9929959787904513
0.9731865932966483,0.9987334556868422
0.9868934467233615,1.0043262612260282
1.000600300150075,1.0112484482275943
1.0143071535767882,1.0191600583065579
1.0280140070035018,1.0250068713450937
1.041720860430215,1.0313295552231565
1.0554277138569284,1.0378572425444412
1.0691345672836416,1.041454178081996
1.0828414207103552,1.0445205395755413
1.0965482741370685,1.044707066711592
1.1102551275637818,1.0440022016646153
1.123961980990495,1.0414242071566568
1.1376688344172086,1.0369015215334367
1.1513756878439219,1.0336666959171477
1.1650825412706352,1.0260616632670876
1.1787893946973487,1.0191156739439067
1.192496248124062,1.013258770257798
1.2062031015507753,1.005511838946618
1.2199099549774886,0.9985009390254533
1.233616808404202,0.9923262437283596
1.2473236618309154,0.9865619789848797
1.2610305152576287,0.9825170148749376
1.274737368684342,0.980120689499867
1.2884442221110555,0.9792945696037454
1.3021510755377688,0.9794748329756325
1.315857928964482,0.9785738010516245
1.3295647823911956,0.9823496634561056
1.3432716358179089,0.9848344264550492
1.3569784892446222,0.9892510461596875
1.3706853426713355,0.9919688034029432
1.384392196098049,0.994222677928015
1.3980990495247623,0.9975860600314964
1.4118059029514756,1.002361876080403
1.4255127563781889,1.0041680805969717
1.4392196098049024,1.00409621320879
1.4529264632316157,1.004386552570996
1.466633316658329,1.002729273663552
1.4803401700850425,1.0002354770663342
1.4940470235117558,0.996474784526521
1.507753876938469,0.9933645482310971
1.5214607303651824,0.986707261252041
1.5351675837918959,0.9830323565961003
1.5488744372186092,0.9774029369084491
1.5625812906453225,0.9727367419952827
1.5762881440720358,0.9692029591394581
1.5899949974987493,0.9652556834853371
1.6037018509254626,0.9637343211814388
1.6174087043521759,0.9617606213286073
1.6311155577788894,0.9620433884555241
1.6448224112056027,0.9631556123665533
1.658529264632316,0.9656892212674367
1.6722361180590293,0.96963004299762
1.6859429714857428,0.9742295544163981
1.699649824912456,0.9793138779637939
1.7133566783391694,0.9864462105795504
1.7270635317658827,0.9928760485413672
1.7407703851925962,0.9972912274885728
1.7544772386193095,1.0013083998431394
1.7681840920460228,1.0043915677480562
1.7818909454727363,1.0071980023748561
1.7955977988994496,1.0094224058610486
1.8093046523261629,1.0086611233392337
1.8230115057528762,1.0092733806236276
1.8367183591795897,1.0049949339808868
1.850425212606303,1.0004111445148185
1.8641320660330163,0.9958438178593615
1.8778389194597296,0.9893256714413924
1.891545772886443,0.9841884025137587
1.9052526263131564,0.9794814328549342
1.9189594797398697,0.9735721407868337
1.9326663331665832,0.9686983298174487
1.9463731865932965,0.9648844741204226
1.9600800400200098,0.9624955611717081
1.973786893446723,0.9625776654252274
1.9874937468734366,0.964031600277913
2.00120060030015,0.9667268458926019
2.014907453726863,0.9717462485926995
2.0286143071535765,0.9767873719524602
2.04232116058029,0.9845925684665913
2.0560280140070035,0.9924636924821846
2.069734867433717,1.0015974943393298
2.08344172086043,1.01055409749441
2.0971485742871434,1.0201407674376932
2.1108554277138567,1.0269409356756847
2.12456228114057,1.0345275476572813
2.1382691345672833,1.0412906203488115
2.1519759879939966,1.0449770136698828
2.1656828414207103,1.0486200880166765
2.1793896948474236,1.0474547982971116
2.193096548274137,1.0484856577706336
2.20680340170085,1.0435586036226743
2.2205102551275635,1.039355857291869
2.234217108554277,1.0350348995478817
2.24792396198099,1.026920951264411
2.261630815407704,1.0198476165790833
2.275337668834417,1.0124880859963556
2.2890445222611304,1.0052892580649817
2.3027513756878437,0.997959124132116
2.316458229114557,0.9932169658761902
2.3301650825412703,0.9893000334212064
2.3438719359679836,0.9852021207298531
2.3575787893946973,0.9834820964861382
2.3712856428214106,0.9847778343333584
2.384992496248124,0.9863417031415066
2.3986993496748372,0.9906143476871695
2.4124062031015505,0.9950727324639486
2.426113056528264,1.0015276590218858
2.439819909954977,1.0067993018770833
2.4535267633816904,1.016148376973781
2.467233616808404,1.0224866575448037
2.4809404702351174,1.0293819215731561
2.4946473236618307,1.0336510143361544
2.508354177088544,1.0396449697599606
2.5220610305152573,1.0418768854621188
2.5357678839419706,1.0457134327601012
2.549474737368684,1.0454705194802332
2.5631815907953976,1.0428368866745608
2.576888444222111,1.0416303639831161
2.5905952976488242,1.036420111495571
2.6043021510755375,1.0307953026345449
2.618009004502251,1.024497163924589
2.631715857928964,1.016635286294792
2.6454227113556774,1.00937203408379
2.659129564782391,1.0030065379619377
2.6728364182091044,0.9967246889779379
2.6865432716358177,0.9901093520861464
2.700250125062531,0.9860246428760358
2.7139569784892443,0.9821333642447241
2.7276638319159576,0.9811225552148594
2.741370685342671,0.9801125003886046
2.755077538769384,0.9794237990946056
2.768784392196098,0.9801888085858068
2.7824912456228112,0.9832310374373828
2.7961980990495245,0.9864523920207505
2.809904952476238,0.9895459162123107
2.823611805902951,0.9935606523727896
2.8373186593296644,0.9982992318384051
2.8510255127563777,1.001051949226186
2.8647323661830915,1.0050384946235464
2.8784392196098048,1.0060620257246686
2.892146073036518,1.005066117916777
2.9058529264632313,1.0053805214575358
2.9195597798899446,1.003551317328433
2.933266633316658,1.0010081092200753
2.9469734867433712,0.997246783638286
2.960680340170085,0.9927362157352736
2.9743871935967983,0.9875995779112497
2.9880940470235116,0.9817610367043517
3.001800900450225,0.9762740236968073
3.015507753876938,0.9726223067504436
3.0292146073036514,0.9685295862896728
3.0429214607303647,0.9653436781055956
3.056628314157078,0.9622066289248373
3.0703351675837918,0.9618112630438177
3.084042021010505,0.963585332961575
3.0977488744372184,0.9650736733982455
3.1114557278639317,0.9677042923318825
3.125162581290645,0.9734456477251086
3.1388694347173582,0.9763025369075834
3.1525762881440715,0.9832256862825587
3.1662831415707853,0.9874265945008048
3.1799899949974986,0.9936723257130011
3.193696848424212,0.9978477125032886
3.207403701850925,1.0025348879567484
3.2211105552776385,1.0051891982028562
3.2348174087043517,1.0080822136546679
3.248524262131065,1.0088038064099882
3.262231115557779,1.0072279915983717
3.275937968984492,1.0046437133323651
3.2896448224112054,1.0033990160835444
3.3033516758379187,0.9970945649535429
3.317058529264632,0.9934937625961066
3.3307653826913453,0.9868538891181687
3.3444722361180586,0.9826175931926787
3.358179089544772,0.9766930679514494
3.3718859429714856,0.9704205940349743
3.385592796398199,0.9673308207939741
3.399299649824912,0.9630752756979291
3.4130065032516255,0.9636420216388698
3.4267133566783388,0.9620461371960083
3.440420210105052,0.9639790742191716
3.4541270635317654,0.9668914491014953
3.467833916958479,0.9716129304800419
3.4815407703851924,0.9807477464154472
3.4952476238119057,0.9877416589697602
3.508954477238619,0.9961032412427826
3.5226613306653323,1.0038318097326422
3.5363681840920456,1.0151787821011538
3.550075037518759,1.0211151865858523
3.5637818909454726,1.0308894539634341
3.577488744372186,1.0364225618837903
3.591195597798899,1.0416070026827122
3.6049024512256125,1.0459640608420853
3.6186093046523258,1.047338219108806
3.632316158079039,1.047148838795644
3.6460230115057524,1.0454021053926414
3.659729864932466,1.042909948810694
3.6734367183591794,1.0366233743901125
3.6871435717858927,1.0298188807034938
3.700850425212606,1.0241832354281617
3.7145572786393193,1.0152445632474443
3.7282641320660326,1.00964457505517
3.741970985492746,1.002988424809634
3.755677838919459,0.9949136894388286
3.769384692346173,0.990297556742041
3.783091545772886,0.9877736795954344
3.7967983991995995,0.983827934846732
3.810505252626313,0.983639236401484
3.824212106053026,0.9850176708107925
3.8379189594797394,0.9876582612350728
3.8516258129064527,0.9922604303266354
3.8653326663331664,0.9982781826816313
3.8790395197598797,1.003463343077036
3.892746373186593,1.011884095098647
3.9064532266133063,1.0164762789724977
3.9201600800400196,1.026036257530119
3.933866933466733,1.032754312331446
3.947573786893446,1.0379662661172229
3.96128064032016,1.0417147995788585
3.974987493746873,1.045334557111079
3.9886943471735865,1.0466413007373054
4.0024012006003,1.0453485437328167
4.016108054027013,1.0445987907698957
4.029814907453726,1.0403833730747023
4.04352176088044,1.0355380127144913
4.057228614307153,1.0300731389834135
4.070935467733866,1.0224264360504671
4.08464232116058,1.0151713106187334
4.098349174587293,1.0076147067407797
4.112056028014007,1.0017240279053206
4.12576288144072,0.9958485579862882
4.139469734867434,0.9900288339902913
4.153176588294147,0.9862980193990117
4.16688344172086,0.9817041374031482
4.1805902951475735,0.9805597373543747
4.194297148574287,0.9800214258543617
4.208004002001,0.9814148040220896
4.221710855427713,0.984468703140876
4.235417708854427,0.9868083169917637
4.24912456228114,0.9880585068502199
4.262831415707853,0.9920064080219949
4.276538269134567,0.9973686854621545
4.29024512256128,0.9997063184617495
4.303951975987993,1.0024413346239487
4.317658829414707,1.0061686177133933
4.331365682841421,1.007056414405488
4.345072536268134,1.0069422356785878
4.358779389694847,1.005017127644244
4.3724862431215605,1.0034418843717638
4.386193096548274,1.000612391487644
4.399899949974987,0.99588145958984
4.4136068034017,0.9898395333973649
4.427313656828414,0.986040806098687
4.441020510255127,0.9790603928227125
4.45472736368184,0.9756399515714737
4.468434217108554,0.9704050120774532
4.482141070535267,0.9670802459962486
4.49584792396198,0.9641823450560012
4.5095547773886935,0.9628280408034905
4.523261630815408,0.9633405116002791
4.536968484242121,0.9638562454913988
4.550675337668834,0.9652920560553394
4.5643821910955475,0.9682141485913701
4.578089044522261,0.9734065715390412
4.591795897948974,0.9777136811653838
4.605502751375687,0.9846263300562633
4.619209604802401,0.9897999097209728
4.632916458229114,0.994116333489376
4.646623311655827,0.9995041249357692
4.660330165082541,1.0034070508697115
4.674037018509254,1.005630006822812
4.687743871935967,1.0084418525019907
4.7014507253626805,1.0072845052065464
4.715157578789395,1.006883945764316
4.728864432216108,1.002386802817372
4.742571285642821,0.9991202837499316
4.756278139069535,0.9950668273928492
4.769984992496248,0.9896977206956056
4.783691845922961,0.9842689794057984
4.7973986993496744,0.9784347573813871
4.811105552776388,0.9721043476145738
4.824812406203101,0.9690482190345304
4.838519259629814,0.9638589830728101
4.852226113056528,0.9627100627606378
4.865932966483241,0.9620803898157095
4.879639819909954,0.962595461500708
4.8933466733366675,0.9648519142487245
4.907053526763381,0.9695925266631719
4.920760380190095,0.9754397918237272
4.934467233616808,0.9815986789693661
4.948174087043522,0.9896935918210613
4.961880940470235,0.9971342468259641
4.975587793896948,1.0086227556817213
4.9892946473236615,1.0161069781293988
5.003001500750375,1.02504480693766
5.016708354177088,1.0312993777040675
5.030415207603801,1.0376691981674595
5.044122061030515,1.043056758019973
5.057828914457228,1.0451544243403963
5.071535767883941,1.0468205397821473
5.0852426213106545,1.0459849557889858
5.098949474737368,1.0431966722639698
5.112656328164081,1.0390816483059397
5.126363181590795,1.0326107559360016
5.140070035017509,1.0266746362968662
5.153776888444222,1.0198514485679588
5.167483741870935,1.0121796711371633
5.1811905952976485,1.0048916933483254
5.194897448724362,0.9977708535876922
5.208604302151075,0.9931336649210627
5.222311155577788,0.9893019284107274
5.236018009004502,0.9843535635692181
5.249724862431215,0.982912501078725
5.263431715857928,0.9837195538861452
5.2771385692846415,0.9869676614412122
5.290845422711355,0.9905284600080171
5.304552276138068,0.9943896260314409
5.318259129564782,1.0016875269738406
5.331965982991496,1.0073676898077835
5.345672836418209,1.014584680626103
5.359379689844922,1.0226650428135597
5.3730865432716355,1.0300323677574472
5.386793396698349,1.035506897964601
5.400500250125062,1.0411048828370213
5.414207103551775,1.045057738126463
5.427913956978489,1.045881582593598
5.441620810405202,1.046305664972185
5.455327663831915,1.0459721027350561
5.4690345172586285,1.044728312545752
5.482741370685342,1.0385858357084397
5.496448224112055,1.0345563986567134
5.510155077538768,1.0259115752944614
5.523861930965483,1.0215334668100091
5.537568784392196,1.0141606984240072
5.551275637818909,1.0064502385684269
5.5649824912456225,1.000058260535796
5.578689344672336,0.9917908919330884
5.592396198099049,0.9891496422557563
5.606103051525762,0.9847177971076656
5.619809904952476,0.9819883997271074
5.633516758379189,0.9810371057198908
5.647223611805902,0.9798694569098906
5.660930465232616,0.9812403429644136
5.674637318659329,0.9850836064080601
5.688344172086042,0.9862107511468843
5.7020510255127554,0.9906069657628113
5.71575787893947,0.9960453173447169
5.729464732366183,0.9986148254722278
5.743171585792896,1.003111954688575
5.7568784392196095,1.005375388311965
5.770585292646323,1.007745650950338
5.784292146073036,1.0082320422544113
5.797998999499749,1.0056111847882452
5.811705852926463,1.0067959042302463
5.825412706353176,1.0023718501032908
5.839119559779889,0.9984933950872302
5.852826413206603,0.9958491915446313
5.866533266633316,0.9908390718474462
5.880240120060029,0.9850583376562432
5.8939469734867425,0.9789377211723983
5.907653826913456,0.9743923794921487
5.92136068034017,0.9709478985590843
5.935067533766883,0.9671712061701604
5.9487743871935965,0.9634459742853615
5.96248124062031,0.9623782028430858
5.976188094047023,0.9637117411810894
5.989894947473736,0.9651319474695473
6.00360180090045,0.9685583532032448
6.017308654327163,0.9706273952547685
6.031015507753876,0.9770049860986232
6.04472236118059,0.9808912905016559
6.058429214607303,0.9860446759603988
6.072136068034016,0.9897649414608004
6.0858429214607295,0.9943760302990811
6.099549774887443,1.0003411142893774
6.113256628314156,1.0045649745489083
6.12696348174087,1.006907159386291
6.1406703351675835,1.006397976595644
6.154377188594297,1.0074059694926034
6.16808404202101,1.00358819480182
6.181790895447723,1.0015399228633872
6.195497748874437,0.9973603422086059
6.20920460230115,0.9928726823326939
6.222911455727863,0.98665958912793
6.236618309154577,0.9801761983661673
6.25032516258129,0.9740374865145052
6.264032016008003,0.9691246307361355
6.2777388694347165,0.9659398129478605
6.29144572286143,0.9615062051065724
6.305152576288143,0.9611792544764726
6.318859429714857,0.9620670438290795
6.3325662831415706,0.9631581411333091
6.346273136568284,0.9662896194844174
6.359979989994997,0.9710804674402123
6.37368684342171,0.9776016138058793
6.387393696848424,0.9831402532190456
6.401100550275137,0.9933692648398355
6.41480740370185,1.0020542906273975
6.428514257128564,1.0104841829573241
6.442221110555277,1.0198224431575713
6.45592796398199,1.0275342638758067
6.4696348174087035,1.0344507315702678
6.483341670835417,1.0393106890251838
6.49704852426213,1.0434894291029109
6.510755377688843,1.046486760174636
6.524462231115558,1.0457981409856403
6.538169084542271,1.0447410138731148
6.551875937968984,1.0413516978532327
6.5655827913956974,1.035748466969921
6.579289644822411,1.0305778152392486
6.592996498249124,1.020437584363648
6.606703351675837,1.0165874866735474
6.620410205102551,1.006791637376759
6.634117058529264,1.0007521561481927
6.647823911955977,0.9939497066415602
6.6615307653826905,0.9893547207259694
6.675237618809404,0.9875764943776086
6.688944472236117,0.9829712431827969
6.70265132566283,0.9839958607747943
6.716358179089544,0.9840175153210694
6.730065032516258,0.9861860198662168
6.743771885942971,0.9918186842473166
6.7574787393696845,0.9968492472211063
6.771185592796398,1.0033795585825311
6.784892446223111,1.010643578126865
6.798599299649824,1.0187201487097488
6.812306153076538,1.0262998686297677
6.826013006503251,1.0310756685018723
6.839719859929964,1.0391237384476084
6.8534267133566775,1.0429739574512265
6.867133566783391,1.0463301896684813
6.880840420210104,1.0474720114920233
6.894547273636817,1.0463702956548089
6.908254127063531,1.0455586332370261
6.921960980490245,1.0428650228949075
6.935667833916958,1.0385342581993473
6.9493746873436715,1.032701803832647
6.963081540770385,1.0258100188324857
6.976788394197098,1.0175267490416193
6.990495247623811,1.0108269125475449
7.004202101050525,1.0043523966408863
7.017908954477238,0.9968718251155342
7.031615807903951,0.9923108599837621
7.0453226613306645,0.9872993131385975
7.059029514757378,0.9833697094697431
7.072736368184091,0.9837017268817071
7.086443221610804,0.9818966692724226
7.100150075037518,0.981193381263171
7.113856928464231,0.9841414548627111
7.127563781890945,0.9863239398912333
7.1412706353176585,0.9899673906917171
7.154977488744372,0.9933706909330651
7.168684342171085,0.9977383961327088
7.182391195597798,1.0020552689894582
7.196098049024512,1.0042958501212194
7.209804902451225,1.0069784357810605
7.223511755877938,1.0082088951066943
7.2372186093046516,1.008304849182563
7.250925462731365,1.008098376087202
7.264632316158078,1.0055714535259217
7.278339169584791,1.001687809742922
7.292046023011505,0.9977064164954567
7.305752876438218,0.993880557772122
7.319459729864932,0.9877055844911644
7.3331665832916455,0.9832019349419512
7.346873436718359,0.9785211739437021
