time,flux
0.0,1.0073783490516286
0.013706853426713355,1.013222504148046
0.02741370685342671,1.0177822813579738
0.041120560280140064,1.020052674021084
0.05482741370685342,1.0219190345221074
0.06853426713356678,1.022889297947389
0.08224112056028013,1.0208144559628436
0.09594797398699349,1.020694882799167
0.10965482741370684,1.0160182543012835
0.1233616808404202,1.0122783846855146
0.13706853426713356,1.0063051140757397
0.1507753876938469,1.0010997346349713
0.16448224112056026,0.9933199742021955
0.1781890945472736,0.9884618519955171
0.19189594797398699,0.9826904665847755
0.20560280140070034,0.978530400292236
0.21930965482741369,0.9759288128230521
0.23301650825412704,0.9735695278862881
0.2467233616808404,0.9728871966306858
0.26043021510755376,0.975436092770322
0.2741370685342671,0.9774225777659046
0.28784392196098046,0.9814611717695563
0.3015507753876938,0.9868909220820073
0.31525762881440716,0.993001069285734
0.3289644822411205,0.9997230460544212
0.34267133566783387,1.0057952814803806
0.3563781890945472,1.0120979331338567
0.3700850425212606,1.017664632031125
0.38379189594797397,1.0221524963475392
0.3974987493746873,1.0248659623464031
0.41120560280140067,1.0278936902282787
0.424912456228114,1.0280618466698668
0.43861930965482737,1.0271556309768495
0.4523261630815407,1.0239569379396714
0.46603301650825407,1.0203872709998978
0.4797398699349674,1.0147816696789445
0.4934467233616808,1.0100540635995336
0.5071535767883941,1.0024434242253106
0.5208604302151075,0.9952988029879196
0.5345672836418208,0.9901549727584488
0.5482741370685342,0.984442753120909
0.5619809904952475,0.9796890581405168
0.5756878439219609,0.9756206341051482
0.5893946973486743,0.9750113899900605
0.6031015507753876,0.9744205794701508
0.616808404202101,0.974867871323527
0.6305152576288143,0.9769690235357791
0.6442221110555277,0.9823684287334302
0.657928964482241,0.987070827528768
0.6716358179089544,0.9933710921714533
0.6853426713356677,0.9979503783842726
0.6990495247623811,1.003430208593382
0.7127563781890944,1.0089718512166965
0.7264632316158078,1.013832904141952
0.7401700850425212,1.018188182607563
0.7538769384692345,1.019450370147853
0.7675837918959479,1.022012648709316
0.7812906453226612,1.0222248105230518
0.7949974987493746,1.020695479296108
0.8087043521760879,1.0185203757599035
0.8224112056028013,1.0148673746376167
0.8361180590295146,1.0094929182327987
0.849824912456228,1.004827905912746
0.8635317658829413,0.9996540214353837
0.8772386193096547,0.9949811008814919
0.8909454727363681,0.9902488351936626
0.9046523261630814,0.987093258763992
0.9183591795897948,0.983569614476243
0.9320660330165081,0.9831295527491243
0.9457728864432215,0.9824080344543017
0.9594797398699348,0.983589612746474
0.9731865932966483,0.9857589926243396
0.9868934467233615,0.9894156907339097
1.000600300150075,0.9928840494649767
1.0143071535767882,0.9963843704881271
1.0280140070035018,1.0016770208815868
1.041720860430215,1.0052051557574901
1.0554277138569284,1.0087072010289129
1.0691345672836416,1.0118883425134189
1.0828414207103552,1.0144657411954106
1.0965482741370685,1.0164062566959928
1.1102551275637818,1.0162667635819738
1.123961980990495,1.0149078458845702
1.1376688344172086,1.0132756192553365
1.1513756878439219,1.0098283045959209
1.1650825412706352,1.0042349837547158
1.1787893946973487,1.0019265944748195
1.192496248124062,0.9965874156401424
1.2062031015507753,0.9920653754556603
1.2199099549774886,0.9882245626574859
1.233616808404202,0.9838999678974012
1.2473236618309154,0.9823469251223703
1.2610305152576287,0.9798292726516994
1.274737368684342,0.9806518468422328
1.2884442221110555,0.9825677042466163
1.3021510755377688,0.9831949489157101
1.315857928964482,0.988690294300822
1.3295647823911956,0.993169127730106
1.3432716358179089,0.9982703012853718
1.3569784892446222,1.0048669564132147
1.3706853426713355,1.0086020773763507
1.384392196098049,1.013786679249504
1.3980990495247623,1.0180883052532947
1.4118059029514756,1.022227335016817
1.4255127563781889,1.0228668846080822
1.4392196098049024,1.0241096189616097
1.4529264632316157,1.021859320235216
1.466633316658329,1.019205758442546
1.4803401700850425,1.0174920248592971
1.4940470235117558,1.0126670395241208
1.507753876938469,1.0080044849631484
1.5214607303651824,1.0018251971141126
1.5351675837918959,0.9943438713189925
1.5488744372186092,0.9896288418091821
1.5625812906453225,0.983518825178699
1.5762881440720358,0.9785075286279873
1.5899949974987493,0.9749540737335356
1.6037018509254626,0.9734664510717432
1.6174087043521759,0.9733282965215113
1.6311155577788894,0.9739431108698572
1.6448224112056027,0.9769326297036345
1.658529264632316,0.98022037811363
1.6722361180590293,0.9856005222516535
1.6859429714857428,0.9913749862877808
1.699649824912456,0.9996291158915225
1.7133566783391694,1.0039858010339202
1.7270635317658827,1.0123096351133278
1.7407703851925962,1.0171078047933584
1.7544772386193095,1.0209861874390544
1.7681840920460228,1.0257569015362018
1.7818909454727363,1.0284298741370808
1.7955977988994496,1.0287611457251977
1.8093046523261629,1.0272584744294575
1.8230115057528762,1.0239912771416608
1.8367183591795897,1.0195819010614555
1.850425212606303,1.015219165286632
1.8641320660330163,1.0093833587759806
1.8778389194597296,1.0028344949885768
1.891545772886443,0.9961150905446483
1.9052526263131564,0.9890522016415231
1.9189594797398697,0.9850094668481957
1.9326663331665832,0.9806498762997999
1.9463731865932965,0.9772825099260226
1.9600800400200098,0.975177815016598
1.973786893446723,0.9756746250627233
1.9874937468734366,0.9760795926257045
2.00120060030015,0.9782286342798502
2.014907453726863,0.9818587953353086
2.0286143071535765,0.9876480095094803
2.04232116058029,0.9924359998682271
2.0560280140070035,0.9968645691305281
2.069734867433717,1.004185030229393
2.08344172086043,1.0086883257622046
2.0971485742871434,1.013899501083791
2.1108554277138567,1.0167240568286782
2.12456228114057,1.0192155172841388
2.1382691345672833,1.0208021950763153
2.1519759879939966,1.0206327180740282
2.1656828414207103,1.018620762690301
2.1793896948474236,1.017289958010717
2.193096548274137,1.0124234652725324
2.20680340170085,1.0085359637109428
2.2205102551275635,1.0041848602162982
2.234217108554277,0.9978472852529939
2.24792396198099,0.9945161455419224
2.261630815407704,0.9897094882805783
2.275337668834417,0.9860781495181504
2.2890445222611304,0.9843827874078538
2.3027513756878437,0.9831401368822713
2.316458229114557,0.9827146937868855
2.3301650825412703,0.9848174427739323
2.3438719359679836,0.9868866914697642
2.3575787893946973,0.9904904672585269
2.3712856428214106,0.9934260615503885
2.384992496248124,0.9982714702886157
2.3986993496748372,1.002055142560396
2.4124062031015505,1.0070738897907678
2.426113056528264,1.0114475413116435
2.439819909954977,1.0154303619167857
2.4535267633816904,1.0160143401647763
2.467233616808404,1.0174295338681616
2.4809404702351174,1.0162553949527702
2.4946473236618307,1.0141023666629978
2.508354177088544,1.0121443497935734
2.5220610305152573,1.0092882644479013
2.5357678839419706,1.0042996203384518
2.549474737368684,1.0006437675265294
2.5631815907953976,0.995298492667337
2.576888444222111,0.9897119818261574
2.5905952976488242,0.9851906242831732
2.6043021510755375,0.9822966273327451
2.618009004502251,0.9798905433449087
2.631715857928964,0.9790334502589851
2.6454227113556774,0.9796365368385588
2.659129564782391,0.9808477772805297
2.6728364182091044,0.9843734911500688
2.6865432716358177,0.9877041257499242
2.700250125062531,0.9937512608940402
2.7139569784892443,0.9974237397603753
2.7276638319159576,1.004695069226163
2.741370685342671,1.009154186803322
2.755077538769384,1.0150743568712128
2.768784392196098,1.0181733882478157
2.7824912456228112,1.022192638747404
2.7961980990495245,1.0233826610922812
2.809904952476238,1.0246446206777111
2.823611805902951,1.023323999751358
2.8373186593296644,1.0215076700950432
2.8510255127563777,1.0180648052406114
2.8647323661830915,1.0133198891380517
2.8784392196098048,1.0067530854272635
2.892146073036518,1.0006481391119681
2.9058529264632313,0.9948062910441959
2.9195597798899446,0.9892078590078465
2.933266633316658,0.9831993785131224
2.9469734867433712,0.9776533697801748
2.960680340170085,0.9745181781661446
2.9743871935967983,0.9727878778627077
2.9880940470235116,0.9721746249168978
3.001800900450225,0.9734403513882719
3.015507753876938,0.9761167671296046
3.0292146073036514,0.979211423982318
3.0429214607303647,0.9844699889942448
3.056628314157078,0.9896900561504917
3.0703351675837918,0.9972494145178441
3.084042021010505,1.0036885738276797
3.0977488744372184,1.0097482688170907
3.1114557278639317,1.0155928071036209
3.125162581290645,1.0212412731390168
3.1388694347173582,1.0253221852854344
3.1525762881440715,1.027186079813443
3.1662831415707853,1.0273387702155352
3.1799899949974986,1.0273111107210797
3.193696848424212,1.0241871435132626
3.207403701850925,1.0200002811193507
3.2211105552776385,1.0144840957322545
3.2348174087043517,1.0091455417070487
3.248524262131065,1.0041504177132452
3.262231115557779,0.9975003333939901
3.275937968984492,0.9899595091767158
3.2896448224112054,0.9858505581042255
3.3033516758379187,0.9818528400483875
3.317058529264632,0.9775006482559647
3.3307653826913453,0.9767520196519628
3.3444722361180586,0.9758739139077669
3.358179089544772,0.9772795124607768
3.3718859429714856,0.9793957153160869
3.385592796398199,0.9821508177477576
3.399299649824912,0.9874215456394407
3.4130065032516255,0.9929585439422397
3.4267133566783388,0.9977547897005097
3.440420210105052,1.0034345809627854
3.4541270635317654,1.0075477945633224
3.467833916958479,1.0127149368762656
3.4815407703851924,1.0164730182532091
3.4952476238119057,1.0180784876107791
3.508954477238619,1.019448442001605
3.5226613306653323,1.019359712271437
3.5363681840920456,1.0174286481056254
3.550075037518759,1.0140147080481203
3.5637818909454726,1.011055996615278
3.577488744372186,1.0070877042274502
3.591195597798899,1.0036845462467237
3.6049024512256125,0.9975962706180369
3.6186093046523258,0.9939122408659901
3.632316158079039,0.9898520727163449
3.6460230115057524,0.9857351012397738
3.659729864932466,0.9843365850371298
3.6734367183591794,0.9833689073958484
3.6871435717858927,0.9841531817716052
3.700850425212606,0.985685025556545
3.7145572786393193,0.9886482283882176
3.7282641320660326,0.991724938794375
3.741970985492746,0.9961040846886186
3.755677838919459,0.9994425992821057
3.769384692346173,1.0036744368118333
3.783091545772886,1.0083448862357505
3.7967983991995995,1.0121275529076594
3.810505252626313,1.014335221361963
3.824212106053026,1.0181793047030043
3.8379189594797394,1.0173710516261492
3.8516258129064527,1.0174234771363955
3.8653326663331664,1.0147070662721793
3.8790395197598797,1.012036414316485
3.892746373186593,1.0097713841327418
3.9064532266133063,1.0036812052002553
3.9201600800400196,0.999159429956644
3.933866933466733,0.9944933109969764
3.947573786893446,0.9895739784860087
3.96128064032016,0.9859172727294833
3.974987493746873,0.9797786920029556
3.9886943471735865,0.9808153391302357
4.0024012006003,0.9785916113477442
4.016108054027013,0.9789204342036087
4.029814907453726,0.9813356597501043
4.04352176088044,0.9821531362638767
4.057228614307153,0.9881130469745165
4.070935467733866,0.9923971110606987
4.08464232116058,0.9991139472226013
4.098349174587293,1.0051027422810255
4.112056028014007,1.0095082326692197
4.12576288144072,1.0153359537069757
4.139469734867434,1.0206017155411462
4.153176588294147,1.02184831558386
4.16688344172086,1.0252526896740046
4.1805902951475735,1.026423741221951
4.194297148574287,1.025486727467142
4.208004002001,1.0226910653157606
4.221710855427713,1.020606302205133
4.235417708854427,1.014054262203114
4.24912456228114,1.0077859836987335
4.262831415707853,1.0025784115903524
4.276538269134567,0.9952468659678527
4.29024512256128,0.9883779627540233
4.303951975987993,0.9830032224766696
4.317658829414707,0.9780246133375222
4.331365682841421,0.9755173867641838
4.345072536268134,0.9721326624094441
4.358779389694847,0.9713044278799753
4.3724862431215605,0.9724123919064143
4.386193096548274,0.976014300559973
4.399899949974987,0.9791678741254887
4.4136068034017,0.9839306632010438
4.427313656828414,0.9884807601978827
4.441020510255127,0.9965964818418839
4.45472736368184,1.0037193176098165
4.468434217108554,1.0095967271429043
4.482141070535267,1.0146222642351386
4.49584792396198,1.020589385045313
4.5095547773886935,1.023950184957671
4.523261630815408,1.0267646327776854
4.536968484242121,1.0273026131400889
4.550675337668834,1.0261576066145937
4.5643821910955475,1.0244379402040624
4.578089044522261,1.0197939577265032
4.591795897948974,1.0147273109162778
4.605502751375687,1.0093798056710037
4.619209604802401,1.003922266627416
4.632916458229114,0.9984948719168275
4.646623311655827,0.9909363096933954
4.660330165082541,0.9857110666044893
4.674037018509254,0.981998049032494
4.687743871935967,0.9790902738249796
4.7014507253626805,0.977145550757623
4.715157578789395,0.9776647133371993
4.728864432216108,0.9783791736464627
4.742571285642821,0.9810126147181365
4.756278139069535,0.9838825600422061
4.769984992496248,0.988731130379485
4.783691845922961,0.9933451972667606
4.7973986993496744,0.9984783790354042
4.811105552776388,1.004371509961492
4.824812406203101,1.007673711510456
4.838519259629814,1.0114156235233074
4.852226113056528,1.0158167521012347
4.865932966483241,1.0184781364269166
4.879639819909954,1.017334461394024
4.8933466733366675,1.0179023337859068
4.907053526763381,1.0161226878734388
4.920760380190095,1.013160570674821
4.934467233616808,1.0094369497973972
4.948174087043522,1.0059814485248508
4.961880940470235,1.0008226487080407
4.975587793896948,0.9959212406839589
4.9892946473236615,0.9930169844803649
5.003001500750375,0.988946854308683
5.016708354177088,0.9858554150854725
5.030415207603801,0.9835053746179435
5.044122061030515,0.9821003622029678
5.057828914457228,0.9839743366050252
5.071535767883941,0.9862084462473861
5.0852426213106545,0.9880852918049048
5.098949474737368,0.9918577869461628
5.112656328164081,0.9959119420108743
5.126363181590795,1.0023084802838071
5.140070035017509,1.0045184130622618
5.153776888444222,1.0100377467441253
5.167483741870935,1.013503493372917
5.1811905952976485,1.0165243006144635
5.194897448724362,1.0168154659244932
5.208604302151075,1.0181027737290362
5.222311155577788,1.0173493910650084
5.236018009004502,1.0155640783710642
5.249724862431215,1.0123115113849346
5.263431715857928,1.0076102163473655
5.2771385692846415,1.0046248067780472
5.290845422711355,0.9985987405247172
5.304552276138068,0.9921624851284084
5.318259129564782,0.988366157218795
5.331965982991496,0.9833117992513487
5.345672836418209,0.9805564116875123
5.359379689844922,0.9774716702867228
5.3730865432716355,0.9767698336345959
5.386793396698349,0.9774973709342065
5.400500250125062,0.979256088727812
5.414207103551775,0.9825544053394429
5.427913956978489,0.9867354815080477
5.441620810405202,0.9921274956868011
5.455327663831915,0.9978837645172062
5.4690345172586285,1.0035484490926987
5.482741370685342,1.010329185721159
5.496448224112055,1.0149029540980457
5.510155077538768,1.0204854461523314
5.523861930965483,1.023519160910481
5.537568784392196,1.0253614524579688
5.551275637818909,1.026613189356661
5.5649824912456225,1.0256641012400316
5.578689344672336,1.024171791856512
5.592396198099049,1.019778665786335
5.606103051525762,1.014118778540782
5.619809904952476,1.0096657697825213
5.633516758379189,1.003033395255215
5.647223611805902,0.9963164531689535
5.660930465232616,0.9897398251621805
5.674637318659329,0.9836969179695422
5.688344172086042,0.9788678643687887
5.7020510255127554,0.9744954952270927
5.71575787893947,0.9733520429561092
5.729464732366183,0.9715504235643903
5.743171585792896,0.9718306107971526
5.7568784392196095,0.9744138908496996
5.770585292646323,0.9789311695828957
5.784292146073036,0.9834611949861252
5.797998999499749,0.9900297970498241
5.811705852926463,0.9959614773649308
5.825412706353176,1.0024542037829425
5.839119559779889,1.0082232338506505
5.852826413206603,1.014623849142877
5.866533266633316,1.0194822516995292
5.880240120060029,1.022158503735839
5.8939469734867425,1.0251658833448103
5.907653826913456,1.0258801917458116
5.92136068034017,1.0250043906768855
5.935067533766883,1.02272602304654
5.9487743871935965,1.0194962584625693
5.96248124062031,1.0143330207716115
5.976188094047023,1.0096337435900467
5.989894947473736,1.0035232297526142
6.00360180090045,0.9980717276203945
6.017308654327163,0.9919368976616632
6.031015507753876,0.9872081054615434
6.04472236118059,0.9834498016490963
6.058429214607303,0.9797205977148481
6.072136068034016,0.977992121078412
6.0858429214607295,0.9769767501454125
6.099549774887443,0.9786651056890024
6.113256628314156,0.9815966205609468
6.12696348174087,0.9849156492731702
6.1406703351675835,0.9893936542856868
6.154377188594297,0.9955429215743768
6.16808404202101,0.9988036077879089
6.181790895447723,1.0044809658105014
6.195497748874437,1.008765393686084
6.20920460230115,1.0123479971041096
6.222911455727863,1.0149040835917562
6.236618309154577,1.0175700947262307
6.25032516258129,1.0177251918578316
6.264032016008003,1.0166640555406836
6.2777388694347165,1.015669230827721
6.29144572286143,1.012092215786155
6.305152576288143,1.0092740511665053
6.318859429714857,1.0043860375403422
6.3325662831415706,0.9984211563211497
6.346273136568284,0.9948463288258612
6.359979989994997,0.9908447272125653
6.37368684342171,0.9845860881164136
6.387393696848424,0.98573831855916
6.401100550275137,0.9836092378723306
6.41480740370185,0.9836827760333632
6.428514257128564,0.9839538627193045
6.442221110555277,0.9861403677680713
6.45592796398199,0.9900613655505636
6.4696348174087035,0.9936830573761307
6.483341670835417,0.9970664418663073
6.49704852426213,1.0029971859055946
6.510755377688843,1.0065563625010794
6.524462231115558,1.0116602260867797
6.538169084542271,1.0156703031598726
6.551875937968984,1.01686831565407
6.5655827913956974,1.019799947932574
6.579289644822411,1.0196179158511887
6.592996498249124,1.0177606846126093
6.606703351675837,1.0165600963317312
6.620410205102551,1.0127532654312421
6.634117058529264,1.0075663361733442
6.647823911955977,1.004099016223293
6.6615307653826905,0.9981002391261355
6.675237618809404,0.9916413747480322
6.688944472236117,0.9868591546067982
6.70265132566283,0.9822684881453982
6.716358179089544,0.9786415270773258
6.730065032516258,0.9765573220676158
6.743771885942971,0.9760868264487995
6.7574787393696845,0.9756845232437148
6.771185592796398,0.9780592232812223
6.784892446223111,0.9821772826343336
6.798599299649824,0.9865667946492025
6.812306153076538,0.9916205653965222
6.826013006503251,0.9969115050435023
6.839719859929964,1.0040548660800446
6.8534267133566775,1.0106717788455655
6.867133566783391,1.0166317002127478
6.880840420210104,1.0210948349198303
6.894547273636817,1.0255009022171786
6.908254127063531,1.0261697209587093
6.921960980490245,1.0268854797249682
6.935667833916958,1.0276321727073447
6.9493746873436715,1.0248638436927877
6.963081540770385,1.0211533559496364
6.976788394197098,1.015939581288026
6.990495247623811,1.0103945971257406
7.004202101050525,1.0045683803130483
7.017908954477238,0.9959740851916291
7.031615807903951,0.9904140042401195
7.0453226613306645,0.9849311245937589
7.059029514757378,0.9799615819642568
7.072736368184091,0.9757167786532472
7.086443221610804,0.9726634734570807
7.100150075037518,0.9719216476073468
7.113856928464231,0.9730180613966775
7.127563781890945,0.9738723357310411
7.1412706353176585,0.9792877519032862
7.154977488744372,0.984187048201479
7.168684342171085,0.9880289291438703
7.182391195597798,0.9955894586949656
7.196098049024512,1.0019407013694541
7.209804902451225,1.0087587220616074
7.223511755877938,1.0151456919011852
7.2372186093046516,1.0180103265319178
7.250925462731365,1.0220178189131979
7.264632316158078,1.0254874263950768
7.278339169584791,1.0255711558231904
7.292046023011505,1.0258388379789884
7.305752876438218,1.021972316957828
7.319459729864932,1.0183723428445166
7.3331665832916455,1.01424965206426
7.346873436718359,1.0093040253026875
