time,flux
0.0,0.9621776320294219
0.013706853426713355,0.9640884216297996
0.02741370685342671,0.9651493337813677
0.041120560280140064,0.9711939102113586
0.05482741370685342,0.9749657962734577
0.06853426713356678,0.9823489581139707
0.08224112056028013,0.9899610311242205
0.09594797398699349,0.9942603142834252
0.10965482741370684,1.001563590686785
0.1233616808404202,1.0057310182367993
0.13706853426713356,1.0110467111924109
0.1507753876938469,1.0158602411970106
0.16448224112056026,1.0206359530297646
0.1781890945472736,1.020043242526689
0.19189594797398699,1.0207159189796007
0.20560280140070034,1.0204387853573034
0.21930965482741369,1.0182101052360113
0.23301650825412704,1.0137333252620164
0.2467233616808404,1.0089007053876025
0.26043021510755376,1.0047011336347986
0.2741370685342671,0.9989692937311081
0.28784392196098046,0.9938326714819401
0.3015507753876938,0.9882431745539787
0.31525762881440716,0.9819354817829071
0.3289644822411205,0.9755230743544414
0.34267133566783387,0.9732151383983538
0.3563781890945472,0.969860928482369
0.3700850425212606,0.9663757142310079
0.38379189594797397,0.9644061217383074
0.3974987493746873,0.9665817229026769
0.41120560280140067,0.9664485936830522
0.424912456228114,0.9694649939004012
0.43861930965482737,0.9731878372639465
0.4523261630815407,0.9674151732341594
0.46603301650825407,0.9817427591304281
0.4797398699349674,0.988529794078058
0.4934467233616808,0.9908515475051317
0.5071535767883941,0.9954748534147814
0.5208604302151075,1.0008863120400795
0.5345672836418208,1.004685770773642
0.5482741370685342,1.0088411402937632
0.5619809904952475,1.0108028265070914
0.5756878439219609,1.0089869760928878
0.5893946973486743,1.0115200343811024
0.6031015507753876,1.010649076950451
0.616808404202101,1.010698719848921
0.6305152576288143,1.0105647578549206
0.6442221110555277,1.0085167271668436
0.657928964482241,1.005852736722657
0.6716358179089544,1.0044066537197507
0.6853426713356677,1.000999067297425
0.6990495247623811,0.9971904140005137
0.7127563781890944,0.9974952095493633
0.7264632316158078,0.9947529588892702
0.7401700850425212,0.9947241672654874
0.7538769384692345,0.9961432977570917
0.7675837918959479,0.9968316895094201
0.7812906453226612,0.9992335387783515
0.7949974987493746,1.001774792185725
0.8087043521760879,1.001340768716459
0.8224112056028013,1.0068771984921032
0.8361180590295146,1.0083906154783393
0.849824912456228,1.0099871043573785
0.8635317658829413,1.011319728022218
0.8772386193096547,1.0134173154486865
0.8909454727363681,1.01472615018242
0.9046523261630814,1.014232952789677
0.9183591795897948,1.0163741080350257
0.9320660330165081,1.0132455431851763
0.9457728864432215,1.0126556725792892
0.9594797398699348,1.0088305210519108
0.9731865932966483,1.0056030497155892
0.9868934467233615,1.0035353723906042
1.000600300150075,1.0003388537295304
1.0143071535767882,0.9939626266003576
1.0280140070035018,0.9931328625274863
1.041720860430215,0.9907968599906966
1.0554277138569284,0.9901658925472361
1.0691345672836416,0.9881516229255223
1.0828414207103552,0.989047816551165
1.0965482741370685,0.9907222690727665
1.1102551275637818,0.9914558836049153
1.123961980990495,0.9963651910611198
1.1376688344172086,0.9999813919777262
1.1513756878439219,1.004878634812065
1.1650825412706352,1.0104431709956208
1.1787893946973487,1.01710246055671
1.192496248124062,1.0208006113496613
1.2062031015507753,1.026976282395886
1.2199099549774886,1.0309324155847692
1.233616808404202,1.0345647985986732
1.2473236618309154,1.036711394550284
1.2610305152576287,1.0380044630653977
1.274737368684342,1.0393969356968855
1.2884442221110555,1.0385129981787313
1.3021510755377688,1.0362295566544264
1.315857928964482,1.0331523130423548
1.3295647823911956,1.0263255556026452
1.3432716358179089,1.023038087909352
1.3569784892446222,1.0164642276141074
1.3706853426713355,1.010273627884391
1.384392196098049,1.003932147054975
1.3980990495247623,0.9958073221011328
1.4118059029514756,0.9914262094188576
1.4255127563781889,0.9845316536160991
1.4392196098049024,0.9825413993042608
1.4529264632316157,0.9794921711110977
1.466633316658329,0.9754240644507196
1.4803401700850425,0.977174448053357
1.4940470235117558,0.9785145561822147
1.507753876938469,0.9796692191850085
1.5214607303651824,0.9830683745014882
1.5351675837918959,0.9875060212470987
1.5488744372186092,0.9924328354414096
1.5625812906453225,0.9954113602403368
1.5762881440720358,1.0039045246425122
1.5899949974987493,1.0101720335412623
1.6037018509254626,1.0147366903370445
1.6174087043521759,1.0185947402333047
1.6311155577788894,1.0224498446946646
1.6448224112056027,1.026478321532887
1.658529264632316,1.0268728499310409
1.6722361180590293,1.0305242786890954
1.6859429714857428,1.0267929295458895
1.699649824912456,1.0241181484684778
1.7133566783391694,1.0226580254804316
1.7270635317658827,1.019067976222504
1.7407703851925962,1.015601657880772
1.7544772386193095,1.0087531371608929
1.7681840920460228,1.0050598000649256
1.7818909454727363,1.0010238178648865
1.7955977988994496,0.9973106453168852
1.8093046523261629,0.9922301069678119
1.8230115057528762,0.9895065760958744
1.8367183591795897,0.9849530452640126
1.850425212606303,0.9842951145654965
1.8641320660330163,0.9831819312266645
1.8778389194597296,0.9806356632787319
1.891545772886443,0.9817498804858308
1.9052526263131564,0.9840746693363571
1.9189594797398697,0.9846170213385597
1.9326663331665832,0.9816121421823002
1.9463731865932965,0.9915005173370481
1.9600800400200098,0.9903847471267232
1.973786893446723,0.992599823910449
1.9874937468734366,0.9966915477814856
2.00120060030015,0.9974002960115077
2.014907453726863,0.9975378687714909
2.0286143071535765,0.997231538133965
2.04232116058029,0.9973263356261165
2.0560280140070035,0.9943519648131764
2.069734867433717,0.9948816017012063
2.08344172086043,0.9918993701158382
2.0971485742871434,0.9894336134973738
2.1108554277138567,0.9878847343600395
2.12456228114057,0.9855162547773095
2.1382691345672833,0.9752829192133057
2.1519759879939966,0.9811580837785119
2.1656828414207103,0.9804873336265983
2.1793896948474236,0.9780496269531268
2.193096548274137,0.9783685642268458
2.20680340170085,0.9809362998378489
2.2205102551275635,0.9840620725314086
2.234217108554277,0.9861166250093862
2.24792396198099,0.9900442589827982
2.261630815407704,0.9912690812785041
2.275337668834417,0.9955509371288329
2.2890445222611304,0.9999344360317418
2.3027513756878437,1.0050541025948911
2.316458229114557,1.0060052048582584
2.3301650825412703,1.007944906959477
2.3438719359679836,1.0111318773608802
2.3575787893946973,1.0100931576349237
2.3712856428214106,1.0115586936860255
2.384992496248124,1.0105396936450883
2.3986993496748372,1.008671028083807
2.4124062031015505,1.0052327115156772
2.426113056528264,1.0014548290504668
2.439819909954977,0.9946290666583248
2.4535267633816904,0.990979879629155
2.467233616808404,0.982231840022486
2.4809404702351174,0.9795429554658014
2.4946473236618307,0.9751509772541238
2.508354177088544,0.9713075250567255
2.5220610305152573,0.9670771646364701
2.5357678839419706,0.963887645017601
2.549474737368684,0.9627496688215197
2.5631815907953976,0.9634307371225102
2.576888444222111,0.9627760530439642
2.5905952976488242,0.968537622687529
2.6043021510755375,0.9716263506412329
2.618009004502251,0.9777175071015168
2.631715857928964,0.9819507907162356
2.6454227113556774,0.9887879720224061
2.659129564782391,0.9961040409539003
2.6728364182091044,1.0024012054425204
2.6865432716358177,1.0111726581228893
2.700250125062531,1.0144771523667464
2.7139569784892443,1.0206324433154013
2.7276638319159576,1.0243473729812729
2.741370685342671,1.0280965312811179
2.755077538769384,1.031537116679268
2.768784392196098,1.0306065805938303
2.7824912456228112,1.0292294954116028
2.7961980990495245,1.0269624867966736
2.809904952476238,1.0236271015617437
2.823611805902951,1.017603806169023
2.8373186593296644,1.013185970633347
2.8510255127563777,1.0073714797581859
2.8647323661830915,1.003522278478344
2.8784392196098048,0.9983324267599765
2.892146073036518,0.9926893259611648
2.9058529264632313,0.9889723695923235
2.9195597798899446,0.9835542749841104
2.933266633316658,0.9806967481747247
2.9469734867433712,0.9799096664885836
2.960680340170085,0.9794293516095008
2.9743871935967983,0.9821707781243526
2.9880940470235116,0.9826802046479319
3.001800900450225,0.9854439640817628
3.015507753876938,0.9887011295566047
3.0292146073036514,0.9945017484099812
3.0429214607303647,0.9976694162520744
3.056628314157078,1.0035330582785957
3.0703351675837918,1.0078958052993165
3.084042021010505,1.0123739883208123
3.0977488744372184,1.01523600243111
3.1114557278639317,1.0176842767332837
3.125162581290645,1.0208372201869036
3.1388694347173582,1.0210787404925463
3.1525762881440715,1.0243992644429167
3.1662831415707853,1.021432070509445
3.1799899949974986,1.0209703371333794
3.193696848424212,1.0202873776513683
3.207403701850925,1.0192182081567691
3.2211105552776385,1.0138570235427617
3.2348174087043517,1.0129536389772114
3.248524262131065,1.0109326284559133
3.262231115557779,1.0073314491167977
3.275937968984492,1.0069617331496763
3.2896448224112054,1.006189723448679
3.3033516758379187,1.0047079027338932
3.317058529264632,1.0031159297255878
3.3307653826913453,1.006778429208667
3.3444722361180586,1.0058617691117024
3.358179089544772,1.0087535475086904
3.3718859429714856,1.010919451059062
3.385592796398199,1.014211992420449
3.399299649824912,1.0152190968934465
3.4130065032516255,1.018009096435201
3.4267133566783388,1.0183261975972557
3.440420210105052,1.0212604197517148
3.4541270635317654,1.0211622811188419
3.467833916958479,1.0221092830734344
3.4815407703851924,1.0203463372788815
3.4952476238119057,1.0191635113996556
3.508954477238619,1.0153908448385214
3.5226613306653323,1.0127550210884344
3.5363681840920456,1.0085407880417987
3.550075037518759,1.0056837735197812
3.5637818909454726,1.0007165043717607
3.577488744372186,0.9961851356980668
3.591195597798899,0.992606574760717
3.6049024512256125,0.989495053171851
3.6186093046523258,0.9859467053666011
3.632316158079039,0.9850887899107181
3.6460230115057524,0.9819249944439712
3.659729864932466,0.9827634453942543
3.6734367183591794,0.9856610719753994
3.6871435717858927,0.9857797125028265
3.700850425212606,0.992092024813853
3.7145572786393193,0.9947618137587246
3.7282641320660326,1.0002194638256015
3.741970985492746,1.0048252665911195
3.755677838919459,1.0114465119911697
3.769384692346173,1.0168286781021278
3.783091545772886,1.0215439037696572
3.7967983991995995,1.026318993032066
3.810505252626313,1.0267973893487599
3.824212106053026,1.0304997063468264
3.8379189594797394,1.02889711324851
3.8516258129064527,1.0327952888225507
3.8653326663331664,1.0285457448756212
3.8790395197598797,1.0246925420894126
3.892746373186593,1.0213930746567212
3.9064532266133063,1.0160612990792723
3.9201600800400196,1.0113871837291177
3.933866933466733,1.0046027365819996
3.947573786893446,0.9975787335975621
3.96128064032016,0.9902611774403811
3.974987493746873,0.9830011540079195
3.9886943471735865,0.9783892566757337
4.0024012006003,0.9708317736545276
4.016108054027013,0.9689654679262297
4.029814907453726,0.9650254099329935
4.04352176088044,0.9628699066557638
4.057228614307153,0.9639415208662006
4.070935467733866,0.9669938763360817
4.08464232116058,0.9690708411009089
4.098349174587293,0.971918668716332
4.112056028014007,0.975264448525394
4.12576288144072,0.9802930571002735
4.139469734867434,0.9867019139349764
4.153176588294147,0.9910178611914093
4.16688344172086,0.9969289882122836
4.1805902951475735,1.0027764849496619
4.194297148574287,1.0045378710293729
4.208004002001,1.009935817961881
4.221710855427713,1.0138000928154414
4.235417708854427,1.0114307817299846
4.24912456228114,1.0146136671028245
4.262831415707853,1.012970250985926
4.276538269134567,1.0113724004614875
4.29024512256128,1.0087310697917344
4.303951975987993,1.0045770571924835
4.317658829414707,1.0008887545061447
4.331365682841421,0.9979271520389132
4.345072536268134,0.9923917437651573
4.358779389694847,0.9886316335016125
4.3724862431215605,0.9852841019993346
4.386193096548274,0.9798400875988073
4.399899949974987,0.9797770659391378
4.4136068034017,0.9782646222635292
4.427313656828414,0.9757483305607672
4.441020510255127,0.9763547544574906
4.45472736368184,0.9800798830096377
4.468434217108554,0.9799150294585207
4.482141070535267,0.9832424440125941
4.49584792396198,0.9836400546698232
4.5095547773886935,0.988128827585264
4.523261630815408,0.9901868445456438
4.536968484242121,0.9913979501079548
4.550675337668834,0.9929448588592173
4.5643821910955475,0.9965279893363334
4.578089044522261,0.9973364667915784
4.591795897948974,0.9973990635282151
4.605502751375687,0.9970087338234674
4.619209604802401,0.9966662134772051
4.632916458229114,0.993310618587618
4.646623311655827,0.9930343984556687
4.660330165082541,0.9897444208896207
4.674037018509254,0.9877567931539072
4.687743871935967,0.9852247717366357
4.7014507253626805,0.9819930022049729
4.715157578789395,0.9838819725679878
4.728864432216108,0.9809491247150048
4.742571285642821,0.9806659262329624
4.756278139069535,0.9822021161101067
4.769984992496248,0.9821404319331594
4.783691845922961,0.9863880763299301
4.7973986993496744,0.9891312138544822
4.811105552776388,0.9927689192754533
4.824812406203101,0.9982123657617344
4.838519259629814,1.0029704059500377
4.852226113056528,1.008185084722822
4.865932966483241,1.0125146910166793
4.879639819909954,1.0156604601275168
4.8933466733366675,1.0209778215654237
4.907053526763381,1.022566241997204
4.920760380190095,1.0244292342045795
4.934467233616808,1.0227308738984604
4.948174087043522,1.0242149190466507
4.961880940470235,1.0195440010797514
4.975587793896948,1.0189839258113251
4.9892946473236615,1.0156869230672865
5.003001500750375,1.0107971152676754
5.016708354177088,1.0072627491527801
5.030415207603801,1.0011113210009592
5.044122061030515,0.9935873877882883
5.057828914457228,0.9907334684317071
5.071535767883941,0.9839843691104441
5.0852426213106545,0.9824571482012546
5.098949474737368,0.975960154255483
5.112656328164081,0.9754174910073499
5.126363181590795,0.975013210404846
5.140070035017509,0.9769660433460026
5.153776888444222,0.9777465447804048
5.167483741870935,0.9805729695392729
5.1811905952976485,0.9856436349472669
5.194897448724362,0.9920003923495232
5.208604302151075,0.9960476982731798
5.222311155577788,1.00414448079903
5.236018009004502,1.0094497558690767
5.249724862431215,1.018301879834051
5.263431715857928,1.0218366488191326
5.2771385692846415,1.0275370949870606
5.290845422711355,1.0342232666649902
5.304552276138068,1.037748427766382
5.318259129564782,1.0392527867024859
5.331965982991496,1.04015399107581
5.345672836418209,1.0397211039692278
5.359379689844922,1.0383306771034742
5.3730865432716355,1.0365826451450781
5.386793396698349,1.0293174527819204
5.400500250125062,1.026651521151627
5.414207103551775,1.0199555671129783
5.427913956978489,1.0151562935719705
5.441620810405202,1.0083613114886412
5.455327663831915,1.004600304517468
5.4690345172586285,1.0000062182230665
5.482741370685342,0.996653123319394
5.496448224112055,0.9913670583743615
5.510155077538768,0.989814771739952
5.523861930965483,0.9875182681185344
5.537568784392196,0.9887652788651033
5.551275637818909,0.9885325821158598
5.5649824912456225,0.9902820343167827
5.578689344672336,0.9951964213198373
5.592396198099049,0.9961579576565531
5.606103051525762,0.9997620317594609
5.619809904952476,1.0031848243299815
5.633516758379189,1.0063394179860636
5.647223611805902,1.0095901094357316
5.660930465232616,1.0139741385633418
5.674637318659329,1.0161406441121965
5.688344172086042,1.0183853114723693
5.7020510255127554,1.0172517453669563
5.71575787893947,1.0168997369167283
5.729464732366183,1.0184764317972483
5.743171585792896,1.0170498884117787
5.7568784392196095,1.0149587478617716
5.770585292646323,1.012204334760275
5.784292146073036,1.0091635099507212
5.797998999499749,1.0061464316785993
5.811705852926463,1.0042387201280891
5.825412706353176,1.0016841596695811
5.839119559779889,1.0010748643108034
5.852826413206603,0.9968932991384334
5.866533266633316,0.9970236944390297
5.880240120060029,0.9986409309349897
5.8939469734867425,1.0001232839098204
5.907653826913456,0.999024397436969
5.92136068034017,1.002580052246496
5.935067533766883,1.0038062502606933
5.9487743871935965,1.005527119687673
5.96248124062031,1.0077210559627339
5.976188094047023,1.0093240658155243
5.989894947473736,1.0117468464757624
6.00360180090045,1.0120888171142381
6.017308654327163,1.0128990406664578
6.031015507753876,1.011923728982784
6.04472236118059,1.010654257417647
6.058429214607303,1.0084361731002474
6.072136068034016,1.006786929900931
6.0858429214607295,1.002376308772625
6.099549774887443,0.9963127615805798
6.113256628314156,0.9908522225429434
6.12696348174087,0.9889151178135769
6.1406703351675835,0.9851039920285741
6.154377188594297,0.9780137409097611
6.16808404202101,0.9751309809442771
6.181790895447723,0.9717916283249881
6.195497748874437,0.9687676826111408
6.20920460230115,0.9672761730163666
6.222911455727863,0.968753810866224
6.236618309154577,0.9701981287074273
6.25032516258129,0.9712641994176364
6.264032016008003,0.9764497409820009
6.2777388694347165,0.977769355736754
6.29144572286143,0.9846848703302427
6.305152576288143,0.990604427480242
6.318859429714857,0.9941344246898889
6.3325662831415706,1.0017987544294378
6.346273136568284,1.0056016890222854
6.359979989994997,1.0114726524274726
6.37368684342171,1.0147849014957362
6.387393696848424,1.0193436288054485
6.401100550275137,1.020221969356734
6.41480740370185,1.019727685707866
6.428514257128564,1.0209266876251841
6.442221110555277,1.0163265225282796
6.45592796398199,1.0173666731098225
6.4696348174087035,1.0102647069889394
6.483341670835417,1.0042115602838957
6.49704852426213,0.9999909487710781
6.510755377688843,0.9917659169694475
6.524462231115558,0.9852907034855518
6.538169084542271,0.9801070912614613
6.551875937968984,0.9738208258030597
6.5655827913956974,0.967426620147013
6.579289644822411,0.9643951039147101
6.592996498249124,0.9622451547537476
6.606703351675837,0.9604122454597266
6.620410205102551,0.9602358294637517
6.634117058529264,0.9602548416444262
6.647823911955977,0.9623126788691081
6.6615307653826905,0.9664498773970454
6.675237618809404,0.9718804294773435
6.688944472236117,0.9773957421364994
6.70265132566283,0.9813449512626786
6.716358179089544,0.9886989528956353
6.730065032516258,0.9920908983724777
6.743771885942971,1.0001859807114646
6.7574787393696845,1.0053994344284791
6.771185592796398,1.0078189578064645
6.784892446223111,1.0120579399353764
6.798599299649824,1.0155280251371002
6.812306153076538,1.0149776123944982
6.826013006503251,1.0140391361979109
6.839719859929964,1.013985813878942
6.8534267133566775,1.0112130921060747
6.867133566783391,1.0094727333146747
6.880840420210104,1.0065658932608599
6.894547273636817,1.0041751800733583
6.908254127063531,1.0001823843412225
6.921960980490245,0.9973656007571915
6.935667833916958,0.9957159629492801
6.9493746873436715,0.9930236758209537
6.963081540770385,0.9906335756605193
6.976788394197098,0.9886684733022203
6.990495247623811,0.9862784590425855
7.004202101050525,0.9894462716577954
7.017908954477238,0.9891032599548478
7.031615807903951,0.9912309962375334
7.0453226613306645,0.9942457356900682
7.059029514757378,0.9951587265152835
7.072736368184091,0.999428776513961
7.086443221610804,1.0014931558554387
7.100150075037518,1.0032602364851944
7.113856928464231,1.0065020145730843
7.127563781890945,1.0083705229210893
7.1412706353176585,1.0077956281132994
7.154977488744372,1.0085544156719135
7.168684342171085,1.0103145343812237
7.182391195597798,1.0077414679680938
7.196098049024512,1.004385643777798
7.209804902451225,1.0050337857266516
7.223511755877938,1.0009013623279863
7.2372186093046516,1.0021829487665455
7.250925462731365,0.9966642703748256
7.264632316158078,0.995801936836507
7.278339169584791,0.9935277908833663
7.292046023011505,0.9920703633598318
7.305752876438218,0.992005703169268
7.319459729864932,0.9925148258681377
7.3331665832916455,0.9952574985208118
7.346873436718359,0.9976517776083611
