time,flux
0.0,0.9781260053994588
0.013706853426713355,0.9786911403108367
0.02741370685342671,0.9811168824528765
0.041120560280140064,0.9833484189719193
0.05482741370685342,0.9860313085268615
0.06853426713356678,0.9915079226450634
0.08224112056028013,0.9947966317171802
0.09594797398699349,0.9981994498483833
0.10965482741370684,1.0025327977873828
0.1233616808404202,1.0066259152631245
0.13706853426713356,1.013489563351308
0.1507753876938469,1.0151037923860267
0.16448224112056026,1.0179766308720808
0.1781890945472736,1.0225479822137025
0.19189594797398699,1.0250535311164086
0.20560280140070034,1.0263793578908431
0.21930965482741369,1.0268816349238425
0.23301650825412704,1.0288345586523657
0.2467233616808404,1.0267479159577875
0.26043021510755376,1.02568999008762
0.2741370685342671,1.0248131455492582
0.28784392196098046,1.0227050646984286
0.3015507753876938,1.0195480120663323
0.31525762881440716,1.0160800918098127
0.3289644822411205,1.0115378631999699
0.34267133566783387,1.0068544286848955
0.3563781890945472,1.0027968408166559
0.3700850425212606,0.9977159161721664
0.38379189594797397,0.9955145967719741
0.3974987493746873,0.9902146006807937
0.41120560280140067,0.988392261128777
0.424912456228114,0.9847222739501923
0.43861930965482737,0.9820406857632457
0.4523261630815407,0.9795399568498433
0.46603301650825407,0.9796433974639259
0.4797398699349674,0.9779691406911016
0.4934467233616808,0.9787839498016326
0.5071535767883941,0.9767680366979483
0.5208604302151075,0.9791483154946726
0.5345672836418208,0.9798114655457741
0.5482741370685342,0.9815757090127807
0.5619809904952475,0.9827035413731754
0.5756878439219609,0.9855620915818017
0.5893946973486743,0.9879602381988102
0.6031015507753876,0.9892382438720582
0.616808404202101,0.9932649500060795
0.6305152576288143,0.9945648951555013
0.6442221110555277,0.9986906203870622
0.657928964482241,0.9986447817525251
0.6716358179089544,1.000978446274637
0.6853426713356677,1.0020569422514796
0.6990495247623811,1.004124712562416
0.7127563781890944,1.0061109368778836
0.7264632316158078,1.0049875083397612
0.7401700850425212,1.0066495095192272
0.7538769384692345,1.0078413433431834
0.7675837918959479,1.0086556051482252
0.7812906453226612,1.0092209822751181
0.7949974987493746,1.0078223292050634
0.8087043521760879,1.009186661478375
0.8224112056028013,1.009699820910457
0.8361180590295146,1.0094529010996924
0.849824912456228,1.0076256052191899
0.8635317658829413,1.0117630033200697
0.8772386193096547,1.0097114030944332
0.8909454727363681,1.0106603714846318
0.9046523261630814,1.0111690417327384
0.9183591795897948,1.0128357411706272
0.9320660330165081,1.0111589633985911
0.9457728864432215,1.0134821886044385
0.9594797398699348,1.0109974703964206
0.9731865932966483,1.0110086341386286
0.9868934467233615,1.0108388227449137
1.000600300150075,1.0102389104541474
1.0143071535767882,1.0080217025714366
1.0280140070035018,1.007742388099383
1.041720860430215,1.004578259324447
1.0554277138569284,1.0039828118876033
1.0691345672836416,1.0012024923255667
1.0828414207103552,0.9979072915829533
1.0965482741370685,0.9954472106138684
1.1102551275637818,0.9937034827361594
1.123961980990495,0.9890550429380764
1.1376688344172086,0.9854350149071942
1.1513756878439219,0.9841008066455781
1.1650825412706352,0.9819598474675838
1.1787893946973487,0.9772366805371451
1.192496248124062,0.9769190865665333
1.2062031015507753,0.9762410736083142
1.2199099549774886,0.9753612375921724
1.233616808404202,0.9742134032085005
1.2473236618309154,0.9764930690346978
1.2610305152576287,0.9770683334226374
1.274737368684342,0.9793647293962017
1.2884442221110555,0.9838883333188846
1.3021510755377688,0.9839735706702295
1.315857928964482,0.9898157172752517
1.3295647823911956,0.9911897448242947
1.3432716358179089,0.9956208103942656
1.3569784892446222,1.000588413930392
1.3706853426713355,1.004542951172492
1.384392196098049,1.0095190946621235
1.3980990495247623,1.0136997684028375
1.4118059029514756,1.0190244094251413
1.4255127563781889,1.021149673386728
1.4392196098049024,1.0248549872878405
1.4529264632316157,1.025299519539197
1.466633316658329,1.027926009706825
1.4803401700850425,1.0279306308591865
1.4940470235117558,1.0286485566227686
1.507753876938469,1.026833856330075
1.5214607303651824,1.0249600127817897
1.5351675837918959,1.0253511222673801
1.5488744372186092,1.0216895479188106
1.5625812906453225,1.0180764078030429
1.5762881440720358,1.0129757692600825
1.5899949974987493,1.0105831628173534
1.6037018509254626,1.0060108730700406
1.6174087043521759,1.003849405668486
1.6311155577788894,0.9965332528617775
1.6448224112056027,0.996511486228658
1.658529264632316,0.9927608522598009
1.6722361180590293,0.9886239750390454
1.6859429714857428,0.9861672994115512
1.699649824912456,0.9835570944677572
1.7133566783391694,0.9809079168767099
1.7270635317658827,0.9811533770966092
1.7407703851925962,0.9817317569198157
1.7544772386193095,0.9800265182900185
1.7681840920460228,0.9818303710649136
1.7818909454727363,0.9810843809458835
1.7955977988994496,0.9826230906758542
1.8093046523261629,0.9842841838492192
1.8230115057528762,0.9858281225711804
1.8367183591795897,0.989240986938453
1.850425212606303,0.989420555263235
1.8641320660330163,0.9917495963577794
1.8778389194597296,0.9927754607483048
1.891545772886443,0.9951650500357047
1.9052526263131564,0.9971002537131979
1.9189594797398697,0.9977007193338817
1.9326663331665832,0.9999500317164237
1.9463731865932965,0.9999547645192766
1.9600800400200098,1.0030344198311822
1.973786893446723,1.0044568346103628
1.9874937468734366,1.0038749468767585
2.00120060030015,1.0059984415685215
2.014907453726863,1.0037527517429101
2.0286143071535765,1.0059681915976686
2.04232116058029,1.0074861354173517
2.0560280140070035,1.0075398533913895
2.069734867433717,1.0061422690927408
2.08344172086043,1.0089187241253252
2.0971485742871434,1.008592380293115
2.1108554277138567,1.0100741815278123
2.12456228114057,1.010514179663185
2.1382691345672833,1.0126148093274996
2.1519759879939966,1.0120137811455183
2.1656828414207103,1.0132397676161333
2.1793896948474236,1.0131305287359065
2.193096548274137,1.0148805254872442
2.20680340170085,1.0139047018540186
2.2205102551275635,1.0146510622193956
2.234217108554277,1.0164993325997027
2.24792396198099,1.0129169001007086
2.261630815407704,1.010098459265389
2.275337668834417,1.0122866620119282
2.2890445222611304,1.0089053303425115
2.3027513756878437,1.0072252145976508
2.316458229114557,1.0048911714651876
2.3301650825412703,1.0011661087119197
2.3438719359679836,0.9959144956705324
2.3575787893946973,0.9949069657248112
2.3712856428214106,0.9924454560366595
2.384992496248124,0.9869699225297881
2.3986993496748372,0.9849404910077824
2.4124062031015505,0.9812818109799433
2.426113056528264,0.9796116356691645
2.439819909954977,0.9764339845678236
2.4535267633816904,0.9773900953500281
2.467233616808404,0.9736544155733293
2.4809404702351174,0.9731977780902092
2.4946473236618307,0.9736314364782431
2.508354177088544,0.9744723027047444
2.5220610305152573,0.9759819527589169
2.5357678839419706,0.9792233663664052
2.549474737368684,0.9832091932752752
2.5631815907953976,0.987117129626138
2.576888444222111,0.9889744513159551
2.5905952976488242,0.9941174196254083
2.6043021510755375,0.9996893450347513
2.618009004502251,1.0017748523818473
2.631715857928964,1.0066079354760622
2.6454227113556774,1.0123004632422852
2.659129564782391,1.0157126005762211
2.6728364182091044,1.0190665912355241
2.6865432716358177,1.0214856423203011
2.700250125062531,1.0237391766011983
2.7139569784892443,1.0252210283200878
2.7276638319159576,1.0263250781266573
2.741370685342671,1.025034234561663
2.755077538769384,1.0287803329499179
2.768784392196098,1.0254130010880127
2.7824912456228112,1.0230871995571573
2.7961980990495245,1.0210787633178549
2.809904952476238,1.0193659978981304
2.823611805902951,1.0160426164159084
2.8373186593296644,1.0121449015514963
2.8510255127563777,1.0103341503211887
2.8647323661830915,1.006773493534196
2.8784392196098048,1.0007589302424351
2.892146073036518,0.9986039719179107
2.9058529264632313,0.9944729305139282
2.9195597798899446,0.9924405949349953
2.933266633316658,0.9885966296932506
2.9469734867433712,0.9875042486631911
2.960680340170085,0.9861604430146684
2.9743871935967983,0.9842476747859055
2.9880940470235116,0.9839973620781062
3.001800900450225,0.9829877397486684
3.015507753876938,0.9820161469412297
3.0292146073036514,0.9824703731305492
3.0429214607303647,0.9843237162861433
3.056628314157078,0.9824223490940293
3.0703351675837918,0.98551820162695
3.084042021010505,0.9866255735557875
3.0977488744372184,0.9900984708509889
3.1114557278639317,0.9897479807984877
3.125162581290645,0.9910918526504978
3.1388694347173582,0.9924451807666061
3.1525762881440715,0.9949848300000694
3.1662831415707853,0.9965165750405609
3.1799899949974986,0.9960831369309324
3.193696848424212,0.996410822758402
3.207403701850925,0.9984002050715364
3.2211105552776385,0.9988080642302447
3.2348174087043517,0.9992815148201282
3.248524262131065,0.9992245827950306
3.262231115557779,1.0018651209014793
3.275937968984492,1.002659033614636
3.2896448224112054,1.0024029262208392
3.3033516758379187,1.0052678775270019
3.317058529264632,1.0066143689433171
3.3307653826913453,1.0061429310022145
3.3444722361180586,1.00813094741569
3.358179089544772,1.009566050857833
3.3718859429714856,1.0103972001082828
3.385592796398199,1.0125188359421204
3.399299649824912,1.0128856706393716
3.4130065032516255,1.0142676751182758
3.4267133566783388,1.0181766529711047
3.440420210105052,1.0159582419571815
3.4541270635317654,1.0167123363181958
3.467833916958479,1.0173583999301221
3.4815407703851924,1.0183965830194572
3.4952476238119057,1.0162999096521705
3.508954477238619,1.01522252119418
3.5226613306653323,1.0137222596739988
3.5363681840920456,1.011815076896787
3.550075037518759,1.0096417217535334
3.5637818909454726,1.0052223466702694
3.577488744372186,1.0028858590960952
3.591195597798899,1.001577542113569
3.6049024512256125,0.997377796882256
3.6186093046523258,0.9925504027869354
3.632316158079039,0.9899286492580964
3.6460230115057524,0.986123235703747
3.659729864932466,0.9841495043610903
3.6734367183591794,0.979292030087777
3.6871435717858927,0.9758607740540929
3.700850425212606,0.9745840186821744
3.7145572786393193,0.9718813409273537
3.7282641320660326,0.9719917282320961
3.741970985492746,0.9726255266771137
3.755677838919459,0.9721366022312465
3.769384692346173,0.9733715881352761
3.783091545772886,0.976296146455352
3.7967983991995995,0.9811769385900847
3.810505252626313,0.9821144951441707
3.824212106053026,0.9878042908439423
3.8379189594797394,0.9906903599446321
3.8516258129064527,0.9949092512363064
3.8653326663331664,0.9995415880201626
3.8790395197598797,1.0061217005244694
3.892746373186593,1.0077831861253568
3.9064532266133063,1.0092216247172436
3.9201600800400196,1.0160968533393884
3.933866933466733,1.0191843401223022
3.947573786893446,1.0226080424336714
3.96128064032016,1.022352159173299
3.974987493746873,1.025341431252325
3.9886943471735865,1.0270114004718387
4.0024012006003,1.0248677091776706
4.016108054027013,1.026404559565602
4.029814907453726,1.0242492273801365
4.04352176088044,1.0219663384348063
4.057228614307153,1.0190683990447007
4.070935467733866,1.0167427077401892
4.08464232116058,1.013138212119991
4.098349174587293,1.0103016292952096
4.112056028014007,1.0075930644513609
4.12576288144072,1.0039590276870507
4.139469734867434,1.0003700088471643
4.153176588294147,0.9978635602917798
4.16688344172086,0.9980134667481817
4.1805902951475735,0.993324805841431
4.194297148574287,0.9914954238547042
4.208004002001,0.9896440578004012
4.221710855427713,0.9872929465539129
4.235417708854427,0.9877872348821577
4.24912456228114,0.986012935394091
4.262831415707853,0.9858873764180187
4.276538269134567,0.9861351016922394
4.29024512256128,0.9859058613688674
4.303951975987993,0.9873446277333439
4.317658829414707,0.98635052775172
4.331365682841421,0.9887413436032678
4.345072536268134,0.9890592078018107
4.358779389694847,0.9896000850849425
4.3724862431215605,0.9907569639526117
4.386193096548274,0.9909816138267302
4.399899949974987,0.9918147563712629
4.4136068034017,0.99251740160539
4.427313656828414,0.9924219798533319
4.441020510255127,0.9937209872837676
4.45472736368184,0.9945910644581258
4.468434217108554,0.9954476404299532
4.482141070535267,0.9962116699621151
4.49584792396198,0.9969519942813926
4.5095547773886935,0.9988949886557887
4.523261630815408,0.9976442939369711
4.536968484242121,1.0005734884162834
4.550675337668834,0.9989500136283859
4.5643821910955475,1.003453352006096
4.578089044522261,1.0032768165062658
4.591795897948974,1.0044337321659573
4.605502751375687,1.006963563302389
4.619209604802401,1.0095745073093723
4.632916458229114,1.0113738094125084
4.646623311655827,1.0139419371596208
4.660330165082541,1.0146067910025796
4.674037018509254,1.0173297388251759
4.687743871935967,1.0196334303763945
4.7014507253626805,1.0212325992600921
4.715157578789395,1.0207641835486219
4.728864432216108,1.019199407399906
4.742571285642821,1.0210923206916682
4.756278139069535,1.0185802678249438
4.769984992496248,1.016877311793375
4.783691845922961,1.016541507747575
4.7973986993496744,1.0134602882410562
4.811105552776388,1.0115898793457139
4.824812406203101,1.0044017699280485
4.838519259629814,1.003795849167975
4.852226113056528,1.0000852703837748
4.865932966483241,0.9950722281723312
4.879639819909954,0.9898632523815662
4.8933466733366675,0.989639442516785
4.907053526763381,0.9835911812013823
4.920760380190095,0.9794307175534989
4.934467233616808,0.9771233308752291
4.948174087043522,0.9747556908014747
4.961880940470235,0.9740671622186803
4.975587793896948,0.973239017524117
4.9892946473236615,0.972438055054763
5.003001500750375,0.9728967494095148
5.016708354177088,0.9734646506549836
5.030415207603801,0.9760306169183556
5.044122061030515,0.976021106978552
5.057828914457228,0.980372554564232
5.071535767883941,0.9839656212705324
5.0852426213106545,0.9900757896715218
5.098949474737368,0.9941450392615759
5.112656328164081,0.9971183191514242
5.126363181590795,1.0017035267938743
5.140070035017509,1.0063048385933628
5.153776888444222,1.0098710286078536
5.167483741870935,1.0131069635979801
5.1811905952976485,1.0159418241675153
5.194897448724362,1.0203894320742584
5.208604302151075,1.0222517071792088
5.222311155577788,1.0226759701650878
5.236018009004502,1.0242747939127186
5.249724862431215,1.0238357667883446
5.263431715857928,1.023756964928102
5.2771385692846415,1.0217632020070335
5.290845422711355,1.0218935114301038
5.304552276138068,1.019539775891687
5.318259129564782,1.0173075953046333
5.331965982991496,1.0131342058028354
5.345672836418209,1.0109498750981323
5.359379689844922,1.0097508780344537
5.3730865432716355,1.0055215867750331
5.386793396698349,1.0027212559057337
5.400500250125062,1.0002081684868318
5.414207103551775,0.9965723229343895
5.427913956978489,0.9971970569480355
5.441620810405202,0.9932025556262223
5.455327663831915,0.9918546671167645
5.4690345172586285,0.9906228333760388
5.482741370685342,0.9895338995567998
5.496448224112055,0.9881629257666977
5.510155077538768,0.987185094485978
5.523861930965483,0.9889642784143585
5.537568784392196,0.9882543681695288
5.551275637818909,0.9882488321610965
5.5649824912456225,0.9884876468230216
5.578689344672336,0.9887771937036017
5.592396198099049,0.9891757576017777
5.606103051525762,0.9889905320140142
5.619809904952476,0.9883743148483507
5.633516758379189,0.9910097959187985
5.647223611805902,0.9913700015292487
5.660930465232616,0.9896817553141318
5.674637318659329,0.9919734346733973
5.688344172086042,0.9911634410233633
5.7020510255127554,0.9917959720983827
5.71575787893947,0.991073286365442
5.729464732366183,0.993993002166537
5.743171585792896,0.9938454739730632
5.7568784392196095,0.9949861152406769
5.770585292646323,0.9939097558562797
5.784292146073036,0.9960369217312756
5.797998999499749,0.9979451479223813
5.811705852926463,1.0013268898522338
5.825412706353176,1.003160075751176
5.839119559779889,1.0024895899925572
5.852826413206603,1.0046448540968063
5.866533266633316,1.007372844159401
5.880240120060029,1.012272592548762
5.8939469734867425,1.013706704830897
5.907653826913456,1.0051261403273748
5.92136068034017,1.0167322969541617
5.935067533766883,1.0192166823567241
5.9487743871935965,1.0208871263035113
5.96248124062031,1.0224183003345495
5.976188094047023,1.0227003756319426
5.989894947473736,1.0218792679868205
6.00360180090045,1.0188090550727487
6.017308654327163,1.020436813268584
6.031015507753876,1.0185375903446845
6.04472236118059,1.014932296196458
6.058429214607303,1.0145223815545557
6.072136068034016,1.0096522728738488
6.0858429214607295,1.007305867749215
6.099549774887443,1.0028093848492292
6.113256628314156,0.9980353338706591
6.12696348174087,0.9932257711218543
6.1406703351675835,0.9904648562158914
6.154377188594297,0.9859287132581414
6.16808404202101,0.9807245587104675
6.181790895447723,0.9780368200133203
6.195497748874437,0.9766934987045136
6.20920460230115,0.9725646150826726
6.222911455727863,0.9741576108672324
6.236618309154577,0.9715206268791995
6.25032516258129,0.9710146086613517
6.264032016008003,0.972503505701077
6.2777388694347165,0.9729066566557525
6.29144572286143,0.9780836901777125
6.305152576288143,0.9806771536866984
6.318859429714857,0.9836392254796552
6.3325662831415706,0.985233247842631
6.346273136568284,0.989021992822719
6.359979989994997,0.9934941454447275
6.37368684342171,0.9992157386917166
6.387393696848424,1.0025266209041916
6.401100550275137,1.008614136123938
6.41480740370185,1.0116868346987269
6.428514257128564,1.0139757531159999
6.442221110555277,1.0159226428102002
6.45592796398199,1.019439263828043
6.4696348174087035,1.019683401510828
6.483341670835417,1.0227375388521542
6.49704852426213,1.0219396722404648
6.510755377688843,1.0222685403283336
6.524462231115558,1.0216562035302126
6.538169084542271,1.0215324682234648
6.551875937968984,1.0177164917612747
6.5655827913956974,1.0175411698980203
6.579289644822411,1.0134485955021222
6.592996498249124,1.012514428480202
6.606703351675837,1.0113516377784753
6.620410205102551,1.0065338395717385
6.634117058529264,1.0059230488513462
6.647823911955977,1.001468777041664
6.6615307653826905,1.000836634802166
6.675237618809404,0.9986947993495262
6.688944472236117,0.9987085784051563
6.70265132566283,0.9958998050440822
6.716358179089544,0.9946449729943468
6.730065032516258,0.9940324917189338
6.743771885942971,0.9915382516184138
6.7574787393696845,0.992504524321744
6.771185592796398,0.9911930075473098
6.784892446223111,0.9911326332283938
6.798599299649824,0.9903658439095981
6.812306153076538,0.9903404317417794
6.826013006503251,0.9919062596675963
6.839719859929964,0.9883084550160119
6.8534267133566775,0.9912666021321018
6.867133566783391,0.988670458871019
6.880840420210104,0.988759767207012
6.894547273636817,0.9887360483505098
6.908254127063531,0.9883856865101759
6.921960980490245,0.9890059113881446
6.935667833916958,0.9876262340712862
6.9493746873436715,0.98775651344042
6.963081540770385,0.9890572194616801
6.976788394197098,0.9880020998271489
6.990495247623811,0.9878503367333293
7.004202101050525,0.989719600424103
7.017908954477238,0.9917961228676839
7.031615807903951,0.9933066622852271
7.0453226613306645,0.9940823272652141
7.059029514757378,0.9948373032056859
7.072736368184091,0.9975385116105544
7.086443221610804,1.000566332559514
7.100150075037518,1.0034237217953683
7.113856928464231,1.0072903864525489
7.127563781890945,1.0096524389542048
7.1412706353176585,1.0112627314751501
7.154977488744372,1.0147521473379864
7.168684342171085,1.0168248615790936
7.182391195597798,1.0209400602297332
7.196098049024512,1.0218018409207037
7.209804902451225,1.0228637169825194
7.223511755877938,1.0234021219318912
7.2372186093046516,1.0244486650691647
7.250925462731365,1.0228925826857191
7.264632316158078,1.0219746491340846
7.278339169584791,1.0216121857654028
7.292046023011505,1.0187819320964229
7.305752876438218,1.0158304587296458
7.319459729864932,1.0116809625352345
7.3331665832916455,1.0105264168307706
7.346873436718359,1.0052833038272568
