time,flux
0.0,1.000844631816804
0.013706853426713355,0.9928107365751022
0.02741370685342671,0.9853745058411707
0.041120560280140064,0.980810898816063
0.05482741370685342,0.9713670050691683
0.06853426713356678,0.9676969235661897
0.08224112056028013,0.9652780087593239
0.09594797398699349,0.9617073534713352
0.10965482741370684,0.9627119108610512
0.1233616808404202,0.9632473806389489
0.13706853426713356,0.9654022624538743
0.1507753876938469,0.9695502399729455
0.16448224112056026,0.9760411149998655
0.1781890945472736,0.9820979336402709
0.19189594797398699,0.9924374514038243
0.20560280140070034,1.0003467763038891
0.21930965482741369,1.0072971688196306
0.23301650825412704,1.0190288036454143
0.2467233616808404,1.02633643730598
0.26043021510755376,1.0307337058893202
0.2741370685342671,1.038448500215574
0.28784392196098046,1.0443902078529663
0.3015507753876938,1.0451823507842453
0.31525762881440716,1.0450236369375234
0.3289644822411205,1.0443530371556642
0.34267133566783387,1.0422177346993777
0.3563781890945472,1.0383149095996562
0.3700850425212606,1.031512067066359
0.38379189594797397,1.024180060252399
0.3974987493746873,1.015802954324422
0.41120560280140067,1.005388887835672
0.424912456228114,0.9948932562509814
0.43861930965482737,0.9863568795825731
0.4523261630815407,0.9803850740772156
0.46603301650825407,0.9720882542300469
0.4797398699349674,0.9657991636194427
0.4934467233616808,0.9611989224131531
0.5071535767883941,0.9563496194579436
0.5208604302151075,0.9535004951027869
0.5345672836418208,0.9530965780297115
0.5482741370685342,0.9546693754517261
0.5619809904952475,0.9579120652939319
0.5756878439219609,0.9624080824491037
0.5893946973486743,0.9670668502629084
0.6031015507753876,0.9751153842651147
0.616808404202101,0.980986878981889
0.6305152576288143,0.9904922330378362
0.6442221110555277,0.9982362731058744
0.657928964482241,1.0051658658846487
0.6716358179089544,1.0146414890648132
0.6853426713356677,1.0187453142974354
0.6990495247623811,1.027592648203454
0.7127563781890944,1.034894596425805
0.7264632316158078,1.0364410422848138
0.7401700850425212,1.040558907330322
0.7538769384692345,1.0402420960363847
0.7675837918959479,1.0439710532580062
0.7812906453226612,1.04202537364312
0.7949974987493746,1.0403012668586638
0.8087043521760879,1.0363546525598122
0.8224112056028013,1.0338117851404134
0.8361180590295146,1.0269054242063533
0.849824912456228,1.022781853480302
0.8635317658829413,1.0148467951115774
0.8772386193096547,1.0066625640636873
0.8909454727363681,0.9988600686506283
0.9046523261630814,0.9926460742710179
0.9183591795897948,0.984932069270161
0.9320660330165081,0.9774393826352383
0.9457728864432215,0.9702884008826625
0.9594797398699348,0.9669003903661938
0.9731865932966483,0.9607823282875434
0.9868934467233615,0.9557812318919227
1.000600300150075,0.9528752571969257
1.0143071535767882,0.9547912309721117
1.0280140070035018,0.9529961504598508
1.041720860430215,0.9548809838136386
1.0554277138569284,0.9577417197440314
1.0691345672836416,0.9632559301719398
1.0828414207103552,0.969605906612158
1.0965482741370685,0.9778126723350137
1.1102551275637818,0.9865830370903569
1.123961980990495,0.9955351006259182
1.1376688344172086,1.005310114652885
1.1513756878439219,1.0158280808697375
1.1650825412706352,1.02475823630699
1.1787893946973487,1.0327545916714171
1.192496248124062,1.0426806704409883
1.2062031015507753,1.0496707263966996
1.2199099549774886,1.0505904367538417
1.233616808404202,1.0546912817263825
1.2473236618309154,1.054751156549524
1.2610305152576287,1.053344028767807
1.274737368684342,1.0507733125974228
1.2884442221110555,1.0455300007810249
1.3021510755377688,1.0389932778514686
1.315857928964482,1.0304411559407212
1.3295647823911956,1.0196795651592883
1.3432716358179089,1.0100180739051892
1.3569784892446222,0.9979781742710548
1.3706853426713355,0.9848719612056006
1.384392196098049,0.9733247353160734
1.3980990495247623,0.9661853219120725
1.4118059029514756,0.9546992893550759
1.4255127563781889,0.9478945963962483
1.4392196098049024,0.9432496940712249
1.4529264632316157,0.9416549058045197
1.466633316658329,0.9404870797330953
1.4803401700850425,0.94326396096882
1.4940470235117558,0.945892681876877
1.507753876938469,0.9524844779695728
1.5214607303651824,0.9598369640082214
1.5351675837918959,0.9695576067932897
1.5488744372186092,0.9796247254055449
1.5625812906453225,0.9935246248835297
1.5762881440720358,1.0027033573741226
1.5899949974987493,1.015012632426257
1.6037018509254626,1.0260071123340986
1.6174087043521759,1.034490939289712
1.6311155577788894,1.0430403937143258
1.6448224112056027,1.04719837997936
1.658529264632316,1.053485806098732
1.6722361180590293,1.0531713409438832
1.6859429714857428,1.054035764951917
1.699649824912456,1.0501976409261644
1.7133566783391694,1.044855179580737
1.7270635317658827,1.0376903603149683
1.7407703851925962,1.0305505128601922
1.7544772386193095,1.022071672223848
1.7681840920460228,1.0140097503122103
1.7818909454727363,1.0018124604424368
1.7955977988994496,0.9939611742059006
1.8093046523261629,0.983041125689184
1.8230115057528762,0.9764885017558689
1.8367183591795897,0.9701167492370103
1.850425212606303,0.9665202512135084
1.8641320660330163,0.9629129314064877
1.8778389194597296,0.9593624253689966
1.891545772886443,0.9612217060537241
1.9052526263131564,0.9611620694691428
1.9189594797398697,0.9642287665242423
1.9326663331665832,0.9688038541968249
1.9463731865932965,0.9736619998647313
1.9600800400200098,0.9802217660808606
1.973786893446723,0.9849217715024365
1.9874937468734366,0.9928317265833702
2.00120060030015,0.998801773335919
2.014907453726863,1.0031424988466278
2.0286143071535765,1.007055348093428
2.04232116058029,1.0143642239184165
2.0560280140070035,1.0152081567382159
2.069734867433717,1.0180383189149809
2.08344172086043,1.0206819760655674
2.0971485742871434,1.0205992746010009
2.1108554277138567,1.0203526493119965
2.12456228114057,1.0188060883434236
2.1382691345672833,1.018529293607921
2.1519759879939966,1.0174814814677338
2.1656828414207103,1.0138065247814276
2.1793896948474236,1.010401946819543
2.193096548274137,1.0095619060764027
2.20680340170085,1.0062160114431054
2.2205102551275635,1.002392246023773
2.234217108554277,1.0032928320397376
2.24792396198099,1.0002006060082722
2.261630815407704,0.999937625876773
2.275337668834417,0.9986347482721917
2.2890445222611304,0.9970350081491799
2.3027513756878437,0.993642243749647
2.316458229114557,0.9958293365527972
2.3301650825412703,0.9954774445320378
2.3438719359679836,0.9945156816314775
2.3575787893946973,0.9953361363102452
2.3712856428214106,0.9931691633665126
2.384992496248124,0.9928012348139342
2.3986993496748372,0.9909613659968225
2.4124062031015505,0.9928517201332446
2.426113056528264,0.9906725985659899
2.439819909954977,0.9911421396923604
2.4535267633816904,0.9904725310335081
2.467233616808404,0.9889276386532665
2.4809404702351174,0.9920236694669362
2.4946473236618307,0.9895856130759484
2.508354177088544,0.9905746923834128
2.5220610305152573,0.9937727598150734
2.5357678839419706,0.9946406044380615
2.549474737368684,0.9953931561538744
2.5631815907953976,0.9979937145607352
2.576888444222111,1.0010591229283186
2.5905952976488242,1.0015600272257983
2.6043021510755375,1.0045439361445594
2.618009004502251,1.0050509402401855
2.631715857928964,1.0091589476725622
2.6454227113556774,1.0066596618666515
2.659129564782391,1.0093547609475364
2.6728364182091044,1.0082631278803311
2.6865432716358177,1.0099527145992724
2.700250125062531,1.0077965007241834
2.7139569784892443,1.0074503523237666
2.7276638319159576,1.006650023278505
2.741370685342671,1.0074514119098361
2.755077538769384,1.0049124701678172
2.768784392196098,1.005215594941322
2.7824912456228112,1.0044115739902733
2.7961980990495245,1.0009548578382537
2.809904952476238,1.0018022190524198
2.823611805902951,0.9999844663000851
2.8373186593296644,1.001240317085563
2.8510255127563777,1.0008191825520176
2.8647323661830915,1.0018488789815294
2.8784392196098048,1.000872229619848
2.892146073036518,1.0005940176099513
2.9058529264632313,1.0027555951247882
2.9195597798899446,1.0031994631793715
2.933266633316658,1.0010193322666041
2.9469734867433712,1.0004540262389663
2.960680340170085,0.9986511001569158
2.9743871935967983,0.9992263028508859
2.9880940470235116,0.9935525444114653
3.001800900450225,0.9940509707959149
3.015507753876938,0.9914451562756411
3.0292146073036514,0.9899640156618457
3.0429214607303647,0.9854995858005852
3.056628314157078,0.9825266590574915
3.0703351675837918,0.9843908425491651
3.084042021010505,0.9826666783496993
3.0977488744372184,0.9815470083154255
3.1114557278639317,0.982321022303025
3.125162581290645,0.9806412984192385
3.1388694347173582,0.9835504877037607
3.1525762881440715,0.9879466241071301
3.1662831415707853,0.9901671668533432
3.1799899949974986,0.9953072107074594
3.193696848424212,1.001264555347926
3.207403701850925,1.0047335466190814
3.2211105552776385,1.012886654859532
3.2348174087043517,1.018686124950228
3.248524262131065,1.0243939946480913
3.262231115557779,1.0274981253622248
3.275937968984492,1.0333602786242853
3.2896448224112054,1.0356251795454543
3.3033516758379187,1.0386682425256957
3.317058529264632,1.0386763758303772
3.3307653826913453,1.037226515411804
3.3444722361180586,1.0323488281753141
3.358179089544772,1.026880562166354
3.3718859429714856,1.0207968790575623
3.385592796398199,1.012972925577437
3.399299649824912,1.003781977873618
3.4130065032516255,0.9961401562828244
3.4267133566783388,0.986889211620339
3.440420210105052,0.9770748182038161
3.4541270635317654,0.9670399476746563
3.467833916958479,0.9601436867862847
3.4815407703851924,0.9542996486077099
3.4952476238119057,0.9510380512708834
3.508954477238619,0.9482269086586922
3.5226613306653323,0.9466295624839581
3.5363681840920456,0.9498562600683805
3.550075037518759,0.9528107879389954
3.5637818909454726,0.9602461481658956
3.577488744372186,0.9668592269213807
3.591195597798899,0.9766096339859743
3.6049024512256125,0.9875540333227274
3.6186093046523258,0.9972025935745618
3.632316158079039,1.0104323045441255
3.6460230115057524,1.0220632985270575
3.659729864932466,1.0301044167307747
3.6734367183591794,1.0410003342758407
3.6871435717858927,1.0473661901042544
3.700850425212606,1.054418476926472
3.7145572786393193,1.0569287671737408
3.7282641320660326,1.05647287060247
3.741970985492746,1.0555041268967842
3.755677838919459,1.053344957785966
3.769384692346173,1.0474285229479454
3.783091545772886,1.0389946763746936
3.7967983991995995,1.0329898061723481
3.810505252626313,1.020963795969688
3.824212106053026,1.009998834911557
3.8379189594797394,0.9984306593395351
3.8516258129064527,0.9882543422285835
3.8653326663331664,0.9783277606541102
3.8790395197598797,0.9706882206811014
3.892746373186593,0.9603514484058765
3.9064532266133063,0.9538314807994929
3.9201600800400196,0.9496008403840311
3.933866933466733,0.9437724167826828
3.947573786893446,0.9470265202677293
3.96128064032016,0.9474749794459497
3.974987493746873,0.9494624546530025
3.9886943471735865,0.95464109452232
4.0024012006003,0.9603190353163066
4.016108054027013,0.9683637118034296
4.029814907453726,0.9773434188742885
4.04352176088044,0.9846465108371775
4.057228614307153,0.9948718266916355
4.070935467733866,1.0039346878524897
4.08464232116058,1.0128752081412127
4.098349174587293,1.0223015857901059
4.112056028014007,1.0297945323203868
4.12576288144072,1.0353636934844888
4.139469734867434,1.0413881805379483
4.153176588294147,1.0437463578687445
4.16688344172086,1.0443972323662511
4.1805902951475735,1.0471039313430794
4.194297148574287,1.044263740464642
4.208004002001,1.0424929788732484
4.221710855427713,1.0400785827503265
4.235417708854427,1.0334492814967622
4.24912456228114,1.027742154768491
4.262831415707853,1.0214906045693553
4.276538269134567,1.0155792324240633
4.29024512256128,1.0079563309981006
4.303951975987993,1.0001254081471853
4.317658829414707,0.9931016069934141
4.331365682841421,0.9858732273108789
4.345072536268134,0.9769171658505147
4.358779389694847,0.9719746131549
4.3724862431215605,0.9660296331234719
4.386193096548274,0.9608664685944901
4.399899949974987,0.9577896944524492
4.4136068034017,0.9570301349509938
4.427313656828414,0.9541340440718883
4.441020510255127,0.9554183227770525
4.45472736368184,0.9564089263987215
4.468434217108554,0.9612620996240242
4.482141070535267,0.9662457684492509
4.49584792396198,0.9689693090822689
4.5095547773886935,0.9790250220410268
4.523261630815408,0.987643914141173
4.536968484242121,0.995284898831542
4.550675337668834,1.0032340581378545
4.5643821910955475,1.0123656244652481
4.578089044522261,1.0226220459881834
4.591795897948974,1.027133388474396
4.605502751375687,1.0354313253864664
4.619209604802401,1.0392428960899578
4.632916458229114,1.0469426762115686
4.646623311655827,1.0488708670536104
4.660330165082541,1.0511750157516762
4.674037018509254,1.049385498501378
4.687743871935967,1.0450132259578149
4.7014507253626805,1.042352879990672
4.715157578789395,1.0348269517501871
4.728864432216108,1.028913631782323
4.742571285642821,1.0196268068355991
4.756278139069535,1.0090316661270948
4.769984992496248,0.9995766902692268
4.783691845922961,0.9918595431135698
4.7973986993496744,0.9794845504679341
4.811105552776388,0.9721459469855711
4.824812406203101,0.9633133057387062
4.838519259629814,0.9567927445770325
4.852226113056528,0.9530680184413539
4.865932966483241,0.9508086593133215
4.879639819909954,0.9500921119377956
4.8933466733366675,0.9514355549740303
4.907053526763381,0.9550154701191337
4.920760380190095,0.9598977876417212
4.934467233616808,0.9680488231594833
4.948174087043522,0.9748302660405657
4.961880940470235,0.9829274536384134
4.975587793896948,0.9927794047106687
4.9892946473236615,1.0013255368173875
5.003001500750375,1.0126398170536104
5.016708354177088,1.020466800686318
5.030415207603801,1.0276723155568932
5.044122061030515,1.0352527116048806
5.057828914457228,1.0381846187901909
5.071535767883941,1.0400192095603433
5.0852426213106545,1.0393751140326326
5.098949474737368,1.0396826017447063
5.112656328164081,1.037203154290315
5.126363181590795,1.03148483304038
5.140070035017509,1.0281974031279786
5.153776888444222,1.0213367194968335
5.167483741870935,1.0156495479674352
5.1811905952976485,1.0058565162661848
5.194897448724362,0.9996837299591343
5.208604302151075,0.9940650514920925
5.222311155577788,0.9875411105336247
5.236018009004502,0.9820059908337923
5.249724862431215,0.9786216644177608
5.263431715857928,0.9761876939685226
5.2771385692846415,0.9747225837779112
5.290845422711355,0.9755870726199025
5.304552276138068,0.9748166780017502
5.318259129564782,0.9775245309113338
5.331965982991496,0.9807054456835864
5.345672836418209,0.9848259104267982
5.359379689844922,0.9901590635652031
5.3730865432716355,0.9933938690554857
5.386793396698349,0.9990173085620054
5.400500250125062,1.004456269038275
5.414207103551775,1.0037950047203366
5.427913956978489,1.0080326800258548
5.441620810405202,1.0086685993312308
5.455327663831915,1.0085944076190831
5.4690345172586285,1.0094349865738523
5.482741370685342,1.0102457465078016
5.496448224112055,1.0077336151159417
5.510155077538768,1.0051129739835398
5.523861930965483,1.0022164101937623
5.537568784392196,1.0008099889772626
5.551275637818909,0.9973920505600091
5.5649824912456225,0.9978635872820341
5.578689344672336,0.9982829970025018
5.592396198099049,0.997206272322273
5.606103051525762,0.9940801397120707
5.619809904952476,0.995547064200183
5.633516758379189,0.9975727700662989
5.647223611805902,0.9966944394449543
5.660930465232616,0.9985207253841593
5.674637318659329,1.001864776230481
5.688344172086042,1.0034132740245212
5.7020510255127554,1.005558497602554
5.71575787893947,1.0077327879572218
5.729464732366183,1.0132196535283373
5.743171585792896,1.0117816539581042
5.7568784392196095,1.0133288371719338
5.770585292646323,1.0141142393175522
5.784292146073036,1.013876467008376
5.797998999499749,1.0131040663835755
5.811705852926463,1.0104499482304479
5.825412706353176,1.0092694005812424
5.839119559779889,1.0061541541229273
5.852826413206603,1.0025039705904424
5.866533266633316,0.9981712717968575
5.880240120060029,0.9977147012579541
5.8939469734867425,0.9943200744860614
5.907653826913456,0.9874738696207459
5.92136068034017,0.9840819553112178
5.935067533766883,0.9828323036464615
5.9487743871935965,0.9816888830798689
5.96248124062031,0.9808469839334494
5.976188094047023,0.9820558328651987
5.989894947473736,0.9819783419920054
6.00360180090045,0.9816488037818693
6.017308654327163,0.9840843018357482
6.031015507753876,0.9862395687166778
6.04472236118059,0.9881961459141396
6.058429214607303,0.9930366686203086
6.072136068034016,0.994713127184249
6.0858429214607295,0.9982265283679224
6.099549774887443,1.0034870809064895
6.113256628314156,1.0054786587163969
6.12696348174087,1.0092459229043222
6.1406703351675835,1.010644147463849
6.154377188594297,1.0149290917657356
6.16808404202101,1.0139510150574107
6.181790895447723,1.0166207805118712
6.195497748874437,1.0188590013691596
6.20920460230115,1.0213571557897323
6.222911455727863,1.0187562265714583
6.236618309154577,1.0194875501790197
6.25032516258129,1.0183032360009359
6.264032016008003,1.0182012294601415
6.2777388694347165,1.0165743403725034
6.29144572286143,1.0159699170597896
6.305152576288143,1.013040974619628
6.318859429714857,1.008787261940555
6.3325662831415706,1.0065522068885386
6.346273136568284,1.0019148342522814
6.359979989994997,0.9994265654710293
6.37368684342171,0.9938802599029868
6.387393696848424,0.9905369722998401
6.401100550275137,0.9846812616706482
6.41480740370185,0.9825109817057189
6.428514257128564,0.9755603655851177
6.442221110555277,0.973753753604741
6.45592796398199,0.9695868894890625
6.4696348174087035,0.9683662933917003
6.483341670835417,0.9692304473210415
6.49704852426213,0.9682143425029474
6.510755377688843,0.9696947034959716
6.524462231115558,0.9723864359536288
6.538169084542271,0.9715804299973082
6.551875937968984,0.9785410136558229
6.5655827913956974,0.9841971712566825
6.579289644822411,0.991108610276551
6.592996498249124,0.9983886496563976
6.606703351675837,1.0063213391528556
6.620410205102551,1.0143096802309868
6.634117058529264,1.0215987181685486
6.647823911955977,1.028689525406043
6.6615307653826905,1.0378143793176478
6.675237618809404,1.0416303939083857
6.688944472236117,1.047938274423517
6.70265132566283,1.0504460232425643
6.716358179089544,1.0505734760527405
6.730065032516258,1.0496562931071605
6.743771885942971,1.0470045904117276
6.7574787393696845,1.0439103600735566
6.771185592796398,1.0332351734845973
6.784892446223111,1.0268487177428893
6.798599299649824,1.01736445153848
6.812306153076538,1.006673320677421
6.826013006503251,0.9936891630789056
6.839719859929964,0.9826831761405015
6.8534267133566775,0.9711086276310775
6.867133566783391,0.9611306968977424
6.880840420210104,0.9504428044128206
6.894547273636817,0.9461199265990904
6.908254127063531,0.9406450116798998
6.921960980490245,0.9404185924077021
6.935667833916958,0.9391226745164895
6.9493746873436715,0.9418065355378683
6.963081540770385,0.944159835253572
6.976788394197098,0.9533247731213857
6.990495247623811,0.9620514789717433
7.004202101050525,0.9723840313022634
7.017908954477238,0.9839861469629557
7.031615807903951,0.9978203379840648
7.0453226613306645,1.0106933892627956
7.059029514757378,1.0209299432730767
7.072736368184091,1.0342261866747733
7.086443221610804,1.0445259328589491
7.100150075037518,1.0518808552737082
7.113856928464231,1.0601627547473778
7.127563781890945,1.0609788191216711
7.1412706353176585,1.0641826194156876
7.154977488744372,1.0614284632999493
7.168684342171085,1.0543735194788117
7.182391195597798,1.0528809031566988
7.196098049024512,1.0455750270308135
7.209804902451225,1.036107470573998
7.223511755877938,1.0259147118530527
7.2372186093046516,1.0137185210220254
7.250925462731365,1.0006972978836066
7.264632316158078,0.9904516000503464
7.278339169584791,0.9805060946689825
7.292046023011505,0.9677640857756967
7.305752876438218,0.961388382574842
7.319459729864932,0.9515577914013429
7.3331665832916455,0.9482387988959065
7.346873436718359,0.9464974805864548
