time,flux
0.0,0.9774806429405533
0.013706853426713355,0.9812082610448085
0.02741370685342671,0.983131141643143
0.041120560280140064,0.985102159947318
0.05482741370685342,0.9891023980824667
0.06853426713356678,0.992278068422308
0.08224112056028013,0.9963546620516284
0.09594797398699349,1.0000997238331708
0.10965482741370684,1.0031829178111722
0.1233616808404202,1.0069161721440214
0.13706853426713356,1.0096962501655293
0.1507753876938469,1.0142095770500423
0.16448224112056026,1.0163194573921663
0.1781890945472736,1.0176109297470295
0.19189594797398699,1.018889002774042
0.20560280140070034,1.0192226955346613
0.21930965482741369,1.0192117961917855
0.23301650825412704,1.0179944192301502
0.2467233616808404,1.0182501796866117
0.26043021510755376,1.0171346448735845
0.2741370685342671,1.0147102348132975
0.28784392196098046,1.0115175075487841
0.3015507753876938,1.009595636436228
0.31525762881440716,1.005196926299466
0.3289644822411205,1.0013372181937568
0.34267133566783387,0.9972285358822809
0.3563781890945472,0.9942266951552631
0.3700850425212606,0.9910107820538295
0.38379189594797397,0.98721065383373
0.3974987493746873,0.9853350646514103
0.41120560280140067,0.9835449083941981
0.424912456228114,0.9799672525797103
0.43861930965482737,0.9795345496758426
0.4523261630815407,0.9785324631963281
0.46603301650825407,0.9785647882725979
0.4797398699349674,0.9785849152898776
0.4934467233616808,0.9806155091880991
0.5071535767883941,0.9818608378107326
0.5208604302151075,0.9841803960739725
0.5345672836418208,0.9876769889648714
0.5482741370685342,0.9901301028528432
0.5619809904952475,0.9930412644938078
0.5756878439219609,0.9969899848504973
0.5893946973486743,1.000925297642537
0.6031015507753876,1.0057870300715281
0.616808404202101,1.0086204413221835
0.6305152576288143,1.0120098717086186
0.6442221110555277,1.0164865022663776
0.657928964482241,1.0170711244349815
0.6716358179089544,1.0203880000739127
0.6853426713356677,1.0217997810916055
0.6990495247623811,1.0229784914342022
0.7127563781890944,1.0232502829126395
0.7264632316158078,1.023589737391021
0.7401700850425212,1.022968419488121
0.7538769384692345,1.0222526778516496
0.7675837918959479,1.0199918824624978
0.7812906453226612,1.0173401306164085
0.7949974987493746,1.0149368792146993
0.8087043521760879,1.011995990417733
0.8224112056028013,1.0083658063807495
0.8361180590295146,1.0046879561624469
0.849824912456228,1.0018159006011285
0.8635317658829413,0.9973241153036256
0.8772386193096547,0.9946318705710061
0.8909454727363681,0.9921086597760364
0.9046523261630814,0.9892313996594909
0.9183591795897948,0.986464247142101
0.9320660330165081,0.9829654718402934
0.9457728864432215,0.9826893952376948
0.9594797398699348,0.9816809586538782
0.9731865932966483,0.9815863858155661
0.9868934467233615,0.9832725578200189
1.000600300150075,0.9819078690689975
1.0143071535767882,0.9860407477049269
1.0280140070035018,0.9877675037392151
1.041720860430215,0.991060850495217
1.0554277138569284,0.9948968781204702
1.0691345672836416,0.9972957566987275
1.0828414207103552,1.0011815075507866
1.0965482741370685,1.0054013286445305
1.1102551275637818,1.008172151898499
1.123961980990495,1.0129419102671806
1.1376688344172086,1.0153635241262298
1.1513756878439219,1.0184515154939942
1.1650825412706352,1.0225798529350578
1.1787893946973487,1.024174262434193
1.192496248124062,1.0255379999201308
1.2062031015507753,1.0270137769797936
1.2199099549774886,1.028287775524751
1.233616808404202,1.0268604520807494
1.2473236618309154,1.0259936465295254
1.2610305152576287,1.0247155441447873
1.274737368684342,1.0228398590312817
1.2884442221110555,1.0212911199159793
1.3021510755377688,1.0176554024744386
1.315857928964482,1.0143810390062171
1.3295647823911956,1.011340739607511
1.3432716358179089,1.0079460812946515
1.3569784892446222,1.004369398409854
1.3706853426713355,1.0009956723647901
1.384392196098049,0.9960357542110994
1.3980990495247623,0.9936379432374355
1.4118059029514756,0.9904874881742455
1.4255127563781889,0.9888884858596796
1.4392196098049024,0.9885403976711186
1.4529264632316157,0.9860546341568481
1.466633316658329,0.9870788211972509
1.4803401700850425,0.9860975120478539
1.4940470235117558,0.9858954535660774
1.507753876938469,0.9868503326344329
1.5214607303651824,0.9898841025578705
1.5351675837918959,0.99154294746028
1.5488744372186092,0.9943206624541375
1.5625812906453225,0.9970911022402095
1.5762881440720358,1.0007538574984418
1.5899949974987493,1.0059165502455407
1.6037018509254626,1.0084056110238862
1.6174087043521759,1.010302589838892
1.6311155577788894,1.0170494348239516
1.6448224112056027,1.0202059577100737
1.658529264632316,1.022578370041673
1.6722361180590293,1.0256524460547578
1.6859429714857428,1.0272077661504575
1.699649824912456,1.0296150754584794
1.7133566783391694,1.0293074188967926
1.7270635317658827,1.0299359202237393
1.7407703851925962,1.0303517269964075
1.7544772386193095,1.0291800639617377
1.7681840920460228,1.026778387887301
1.7818909454727363,1.0262752802972344
1.7955977988994496,1.0221440826409858
1.8093046523261629,1.0204087568019773
1.8230115057528762,1.0161660874892482
1.8367183591795897,1.0130703032662849
1.850425212606303,1.0101600507157318
1.8641320660330163,1.0061434545634482
1.8778389194597296,1.0025759419336848
1.891545772886443,0.999425853374961
1.9052526263131564,0.9971062758338796
1.9189594797398697,0.9928888419253407
1.9326663331665832,0.9916627216465399
1.9463731865932965,0.9895704681510497
1.9600800400200098,0.9887463644313234
1.973786893446723,0.9869523002911573
1.9874937468734366,0.9877776331046783
2.00120060030015,0.9891306326053906
2.014907453726863,0.9910176598155684
2.0286143071535765,0.9916346212913627
2.04232116058029,0.993635347361856
2.0560280140070035,0.996884688871054
2.069734867433717,1.0017977200922945
2.08344172086043,1.0044066577373874
2.0971485742871434,1.0084705033971517
2.1108554277138567,1.0109835998659733
2.12456228114057,1.015307118563213
2.1382691345672833,1.0184480615644842
2.1519759879939966,1.0225489562131391
2.1656828414207103,1.025292937286791
2.1793896948474236,1.0276920841022765
2.193096548274137,1.029790716691476
2.20680340170085,1.0311131852450008
2.2205102551275635,1.0320258727996536
2.234217108554277,1.0317610548511564
2.24792396198099,1.0323645970091768
2.261630815407704,1.0311035600706586
2.275337668834417,1.0281932420041364
2.2890445222611304,1.027522061366678
2.3027513756878437,1.0246681504226904
2.316458229114557,1.0214453383915703
2.3301650825412703,1.018038576550543
2.3438719359679836,1.014499200458397
2.3575787893946973,1.0110825423835879
2.3712856428214106,1.0073029246351848
2.384992496248124,1.0036621328708295
2.3986993496748372,1.0004372640331625
2.4124062031015505,0.9972148360921201
2.426113056528264,0.9948923195204469
2.439819909954977,0.9931776831806601
2.4535267633816904,0.991128380848504
2.467233616808404,0.9894741521266449
2.4809404702351174,0.9895240615239788
2.4946473236618307,0.9896854875631541
2.508354177088544,0.9902306333474414
2.5220610305152573,0.9915746815082345
2.5357678839419706,0.9942583712727461
2.549474737368684,0.9960277351929011
2.5631815907953976,0.9996982055216539
2.576888444222111,1.0030090864607992
2.5905952976488242,1.0051688339081506
2.6043021510755375,1.0081492798779168
2.618009004502251,1.0121665086812475
2.631715857928964,1.0164722631681846
2.6454227113556774,1.020644003277174
2.659129564782391,1.0234388277031672
2.6728364182091044,1.026099976705853
2.6865432716358177,1.028862689108809
2.700250125062531,1.0296558109745597
2.7139569784892443,1.0320799579141309
2.7276638319159576,1.031315157589421
2.741370685342671,1.0317071406382468
2.755077538769384,1.0314109130739904
2.768784392196098,1.03012935445091
2.7824912456228112,1.0291167412439044
2.7961980990495245,1.026451661097545
2.809904952476238,1.0236972425045554
2.823611805902951,1.0213373003478772
2.8373186593296644,1.0168878907929
2.8510255127563777,1.0143059989381984
2.8647323661830915,1.0116582617771595
2.8784392196098048,1.0071341175925301
2.892146073036518,1.00297666776245
2.9058529264632313,1.000670633406872
2.9195597798899446,0.9965179478529417
2.933266633316658,0.9934890593984469
2.9469734867433712,0.992080486900285
2.960680340170085,0.9899309061639997
2.9743871935967983,0.9887585127443921
2.9880940470235116,0.9875789734156002
3.001800900450225,0.9889056951619609
3.015507753876938,0.990463671576209
3.0292146073036514,0.9917299368199081
3.0429214607303647,0.9922743295299118
3.056628314157078,0.9959143086792493
3.0703351675837918,0.9977719189610312
3.084042021010505,1.0004441368398067
3.0977488744372184,1.0048781752242122
3.1114557278639317,1.0073823776321915
3.125162581290645,1.0125600196362985
3.1388694347173582,1.0156618754842344
3.1525762881440715,1.0193836425735885
3.1662831415707853,1.022786602346157
3.1799899949974986,1.0263715718964057
3.193696848424212,1.0276304334274777
3.207403701850925,1.0295200430681994
3.2211105552776385,1.0300359076622017
3.2348174087043517,1.0310633373989109
3.248524262131065,1.0306621127333129
3.262231115557779,1.0302404045044395
3.275937968984492,1.0286729256422364
3.2896448224112054,1.0267452440155358
3.3033516758379187,1.0256046391406684
3.317058529264632,1.022145757185859
3.3307653826913453,1.0187663679437782
3.3444722361180586,1.0152325679228005
3.358179089544772,1.012716984169286
3.3718859429714856,1.0082098573170601
3.385592796398199,1.0034110357762593
3.399299649824912,1.0011432347440714
3.4130065032516255,0.9987673761791516
3.4267133566783388,0.9939419180269712
3.440420210105052,0.9923482141164695
3.4541270635317654,0.9891230930457151
3.467833916958479,0.9883264261524004
3.4815407703851924,0.9866747275393338
3.4952476238119057,0.9869951002669403
3.508954477238619,0.9866129927415183
3.5226613306653323,0.98809556043916
3.5363681840920456,0.9878896376944221
3.550075037518759,0.9922380896515911
3.5637818909454726,0.994557150499454
3.577488744372186,0.9973133415748494
3.591195597798899,1.001105785656552
3.6049024512256125,1.0040402000871944
3.6186093046523258,1.0075189090538277
3.632316158079039,1.0105856656111996
3.6460230115057524,1.0143854792624156
3.659729864932466,1.0168955205434302
3.6734367183591794,1.0215425257291253
3.6871435717858927,1.0228808513312666
3.700850425212606,1.0259761547755866
3.7145572786393193,1.0263408526042843
3.7282641320660326,1.0286014468201812
3.741970985492746,1.0289910453909348
3.755677838919459,1.0286642608237897
3.769384692346173,1.0269705010313859
3.783091545772886,1.02616701276657
3.7967983991995995,1.0243734902289983
3.810505252626313,1.0213506389752263
3.824212106053026,1.0186553747762725
3.8379189594797394,1.016967524413111
3.8516258129064527,1.0129703417278346
3.8653326663331664,1.0088272797490592
3.8790395197598797,1.0051440256776598
3.892746373186593,1.0005666376359394
3.9064532266133063,0.9968462045173032
3.9201600800400196,0.9936427804369037
3.933866933466733,0.9910430894471968
3.947573786893446,0.9876307177257468
3.96128064032016,0.986646442965471
3.974987493746873,0.9858188261451485
3.9886943471735865,0.9843926053191816
4.0024012006003,0.9834833553962685
4.016108054027013,0.9839674847118931
4.029814907453726,0.9849342553838364
4.04352176088044,0.9857826829263581
4.057228614307153,0.9885548103274855
4.070935467733866,0.9916598152034999
4.08464232116058,0.9940401472852433
4.098349174587293,0.9968449937613935
4.112056028014007,1.0011617069114134
4.12576288144072,1.0042828339619645
4.139469734867434,1.0079130789886437
4.153176588294147,1.0121499710110866
4.16688344172086,1.0146186317629444
4.1805902951475735,1.017817973375567
4.194297148574287,1.0197023488804655
4.208004002001,1.0229172015488273
4.221710855427713,1.0252066339931096
4.235417708854427,1.024688836910078
4.24912456228114,1.0248590674235574
4.262831415707853,1.0253729865066328
4.276538269134567,1.0233920846181828
4.29024512256128,1.0220750052759282
4.303951975987993,1.0207358865029712
4.317658829414707,1.01748856916555
4.331365682841421,1.0155364887548386
4.345072536268134,1.0110028359919456
4.358779389694847,1.0076558153883644
4.3724862431215605,1.0042164136069158
4.386193096548274,1.000658510004932
4.399899949974987,0.9964726411349754
4.4136068034017,0.9919185594986872
4.427313656828414,0.9902111802365934
4.441020510255127,0.9871992400178135
4.45472736368184,0.9838135459226333
4.468434217108554,0.9821098007084587
4.482141070535267,0.9817924439921406
4.49584792396198,0.9796887961443955
4.5095547773886935,0.9807665404226503
4.523261630815408,0.9812933790101406
4.536968484242121,0.9807885082542158
4.550675337668834,0.9830503525849991
4.5643821910955475,0.9854152937146149
4.578089044522261,0.9880775083873341
4.591795897948974,0.9913540533774363
4.605502751375687,0.9935079787525753
4.619209604802401,0.9983863811517188
4.632916458229114,1.0010297309571032
4.646623311655827,1.0044724498225142
4.660330165082541,1.0077286590539551
4.674037018509254,1.0116081506722006
4.687743871935967,1.0147469374171914
4.7014507253626805,1.016125052686087
4.715157578789395,1.0189911604495454
4.728864432216108,1.0212724428666022
4.742571285642821,1.0219916175477635
4.756278139069535,1.0220928893603975
4.769984992496248,1.0210790561193237
4.783691845922961,1.0188200557393634
4.7973986993496744,1.018156891795759
4.811105552776388,1.0176745580980582
4.824812406203101,1.0121196859514465
4.838519259629814,1.0106372472221692
4.852226113056528,1.005839387070615
4.865932966483241,1.0030911886055038
4.879639819909954,0.9997094131458618
4.8933466733366675,0.9952666031574753
4.907053526763381,0.9915795936048397
4.920760380190095,0.9878470528799789
4.934467233616808,0.9852527856273194
4.948174087043522,0.9831741819187076
4.961880940470235,0.9788587459671237
4.975587793896948,0.9781738332311184
4.9892946473236615,0.9756245460689708
5.003001500750375,0.9769553670482453
5.016708354177088,0.975888133949472
5.030415207603801,0.9762437737542681
5.044122061030515,0.9780775891628217
5.057828914457228,0.9797843412312652
5.071535767883941,0.9817918599305574
5.0852426213106545,0.9847875554744805
5.098949474737368,0.9881251776641571
5.112656328164081,0.9908917404609353
5.126363181590795,0.9937391686657284
5.140070035017509,0.9986308535749292
5.153776888444222,1.0028608994291048
5.167483741870935,1.0050624188940027
5.1811905952976485,1.0077237903629264
5.194897448724362,1.0121947359992316
5.208604302151075,1.0143187999369283
5.222311155577788,1.0156226348755684
5.236018009004502,1.0167543167666337
5.249724862431215,1.0165897951733982
5.263431715857928,1.0176887995625123
5.2771385692846415,1.017246554410004
5.290845422711355,1.0160391266871054
5.304552276138068,1.013669290963163
5.318259129564782,1.0128178420523593
5.331965982991496,1.0085461776242297
5.345672836418209,1.0057287156896781
5.359379689844922,1.002476638833085
5.3730865432716355,0.9983946064581545
5.386793396698349,0.9949945017236576
5.400500250125062,0.992220783859796
5.414207103551775,0.9862089030595331
5.427913956978489,0.9839393398195921
5.441620810405202,0.9813169377728636
5.455327663831915,0.9774787028209958
5.4690345172586285,0.9754099742360457
5.482741370685342,0.9737330412967806
5.496448224112055,0.9732584850235321
5.510155077538768,0.9721748310006376
5.523861930965483,0.9719094809969498
5.537568784392196,0.9740650487649254
5.551275637818909,0.9748580622467482
5.5649824912456225,0.9765544743696997
5.578689344672336,0.9773957073462032
5.592396198099049,0.9809383713660312
5.606103051525762,0.984403394484932
5.619809904952476,0.987370899703876
5.633516758379189,0.9911949379150452
5.647223611805902,0.9949980365813312
5.660930465232616,0.9986785891666482
5.674637318659329,1.0022603411715214
5.688344172086042,1.0056415478086898
5.7020510255127554,1.0079637931744494
5.71575787893947,1.0107508363058673
5.729464732366183,1.012365825563906
5.743171585792896,1.013769871109556
5.7568784392196095,1.0132306779504932
5.770585292646323,1.013503140643996
5.784292146073036,1.0128299584828007
5.797998999499749,1.011801418933066
5.811705852926463,1.0103315093558431
5.825412706353176,1.006508864721974
5.839119559779889,1.0058871980400081
5.852826413206603,1.00194773455281
5.866533266633316,0.9978369337514064
5.880240120060029,0.995320564809686
5.8939469734867425,0.9916681441223921
5.907653826913456,0.9880316297964218
5.92136068034017,0.9832736151494788
5.935067533766883,0.9801495373786693
5.9487743871935965,0.9767546959982479
5.96248124062031,0.9750626164847542
5.976188094047023,0.9729737962111067
5.989894947473736,0.9700607974297243
6.00360180090045,0.9698730458425129
6.017308654327163,0.9691388260449509
6.031015507753876,0.9699985420072851
6.04472236118059,0.9713605999193518
6.058429214607303,0.9720403358190229
6.072136068034016,0.9742231679393971
6.0858429214607295,0.9759734823736255
6.099549774887443,0.9789649333358662
6.113256628314156,0.9826072450506071
6.12696348174087,0.9862083432595434
6.1406703351675835,0.9895423466569725
6.154377188594297,0.9928118303845669
6.16808404202101,0.9963183914186003
6.181790895447723,0.9991368850022111
6.195497748874437,1.0033020325070736
6.20920460230115,1.0057383328102623
6.222911455727863,1.0083444216097663
6.236618309154577,1.0107007765600262
6.25032516258129,1.0111487777800487
6.264032016008003,1.0117609506724077
6.2777388694347165,1.012614059627549
6.29144572286143,1.0104302359989978
6.305152576288143,1.0104655117496455
6.318859429714857,1.0085133066663992
6.3325662831415706,1.0070335006878068
6.346273136568284,1.0040231094476597
6.359979989994997,1.0004592384665372
6.37368684342171,0.9956668014641376
6.387393696848424,0.9928178100736306
6.401100550275137,0.9883648466261514
6.41480740370185,0.9851544240668021
6.428514257128564,0.9811749783345711
6.442221110555277,0.9781770459599134
6.45592796398199,0.9757168378347884
6.4696348174087035,0.9723033446638478
6.483341670835417,0.9702471656258735
6.49704852426213,0.970174554874436
6.510755377688843,0.9678305879555431
6.524462231115558,0.9678691290949321
6.538169084542271,0.9683830326445522
6.551875937968984,0.9696790156090452
6.5655827913956974,0.9701828586840828
6.579289644822411,0.9724573229810142
6.592996498249124,0.9749431557712459
6.606703351675837,0.9784722005264105
6.620410205102551,0.9817548362101863
6.634117058529264,0.9865709847649433
6.647823911955977,0.9883089596670006
6.6615307653826905,0.9931309621999681
6.675237618809404,0.9957234446986646
6.688944472236117,1.0002879550159696
6.70265132566283,1.0039197452107718
6.716358179089544,1.0053815300521227
6.730065032516258,1.0063604152017105
6.743771885942971,1.0095489242731785
6.7574787393696845,1.0105438643917142
6.771185592796398,1.010795806376084
6.784892446223111,1.0107700302253106
6.798599299649824,1.009455190341524
6.812306153076538,1.0087246966940655
6.826013006503251,1.0063498208551773
6.839719859929964,1.0042224685422305
6.8534267133566775,1.0015833110121295
6.867133566783391,0.998468472115769
6.880840420210104,0.9951082673611861
6.894547273636817,0.9918352461166843
6.908254127063531,0.9878242093635259
6.921960980490245,0.9834214413550331
6.935667833916958,0.9809325418062252
6.9493746873436715,0.9778571515843706
6.963081540770385,0.9741161547636167
6.976788394197098,0.9712623815085457
6.990495247623811,0.9699185838835866
7.004202101050525,0.9690622893262963
7.017908954477238,0.9678063994340621
7.031615807903951,0.9678613768060325
7.0453226613306645,0.9677173590451132
7.059029514757378,0.9694990945263614
7.072736368184091,0.9710286353066571
7.086443221610804,0.9732947391692806
7.100150075037518,0.9768374033602788
7.113856928464231,0.9792214404250944
7.127563781890945,0.981618088327032
7.1412706353176585,0.9857695958112663
7.154977488744372,0.9896722294314535
7.168684342171085,0.9928425292520635
7.182391195597798,0.9968395237424658
7.196098049024512,1.0013850712049728
7.209804902451225,1.0027751928590625
7.223511755877938,1.0066851227665414
7.2372186093046516,1.0096060851144821
7.250925462731365,1.010158282533765
7.264632316158078,1.011390794940668
7.278339169584791,1.0111821912400925
7.292046023011505,1.0114583037980305
7.305752876438218,1.0101833890422598
7.319459729864932,1.0092668993475893
7.3331665832916455,1.0078822150016478
7.346873436718359,1.0045137649245128
