time,flux
0.0,1.0400842149863736
0.013706853426713355,1.043864010383987
0.02741370685342671,1.0486405808414565
0.041120560280140064,1.0488336741095075
0.05482741370685342,1.0435633827240909
0.06853426713356678,1.0396935580261266
0.08224112056028013,1.0343613248952903
0.09594797398699349,1.0271872503525277
0.10965482741370684,1.0195143786842582
0.1233616808404202,1.0048987816889055
0.13706853426713356,0.9944447499806665
0.1507753876938469,0.9862591605555867
0.16448224112056026,0.9758646503567674
0.1781890945472736,0.9664554071578022
0.19189594797398699,0.959033331488566
0.20560280140070034,0.9554624316496595
0.21930965482741369,0.9479735539018141
0.23301650825412704,0.9504256862367008
0.2467233616808404,0.9487382497611733
0.26043021510755376,0.9499076847637666
0.2741370685342671,0.9563425341307128
0.28784392196098046,0.9618721746090283
0.3015507753876938,0.9696970494511882
0.31525762881440716,0.9784939165193292
0.3289644822411205,0.9855758073876977
0.34267133566783387,0.9979850495111112
0.3563781890945472,1.0053711137478896
0.3700850425212606,1.017331983726166
0.38379189594797397,1.0216012321418455
0.3974987493746873,1.025607246074425
0.41120560280140067,1.029689092307679
0.424912456228114,1.0360033409599922
0.43861930965482737,1.0326469153579783
0.4523261630815407,1.0299295862133822
0.46603301650825407,1.0333105816574077
0.4797398699349674,1.0247262377409214
0.4934467233616808,1.0248667784482035
0.5071535767883941,1.014263396409217
0.5208604302151075,1.0135845786176985
0.5345672836418208,1.0077891409262048
0.5482741370685342,1.0036626391797427
0.5619809904952475,0.9974599087307459
0.5756878439219609,0.9959399362556399
0.5893946973486743,0.9917406343723307
0.6031015507753876,0.9901789455602245
0.616808404202101,0.989924982679014
0.6305152576288143,0.9897866491926166
0.6442221110555277,0.9953972684655485
0.657928964482241,0.9998051663780312
0.6716358179089544,1.0039772485184857
0.6853426713356677,1.004343648707234
0.6990495247623811,1.0052655226167286
0.7127563781890944,1.01060436418185
0.7264632316158078,1.0123764427487718
0.7401700850425212,1.0135664242406457
0.7538769384692345,1.0129828207715916
0.7675837918959479,1.0102139911251071
0.7812906453226612,1.0083551413216199
0.7949974987493746,1.001703042103989
0.8087043521760879,1.0002509854101775
0.8224112056028013,0.9931792403624292
0.8361180590295146,0.9845675004437179
0.849824912456228,0.9805983116111414
0.8635317658829413,0.9749816880895709
0.8772386193096547,0.96549599935159
0.8909454727363681,0.9658866801740104
0.9046523261630814,0.9622143890540376
0.9183591795897948,0.9600164106496356
0.9320660330165081,0.960855287894484
0.9457728864432215,0.9703227765357522
0.9594797398699348,0.9683178562245808
0.9731865932966483,0.9774412657299197
0.9868934467233615,0.9815386961173281
1.000600300150075,0.9936040034545112
1.0143071535767882,1.0035195217579633
1.0280140070035018,1.0127533669625877
1.041720860430215,1.0219949638630155
1.0554277138569284,1.031673492193534
1.0691345672836416,1.038377402762828
1.0828414207103552,1.042200265804311
1.0965482741370685,1.0477271970861965
1.1102551275637818,1.0495815602906595
1.123961980990495,1.0546115405278416
1.1376688344172086,1.0520167524541386
1.1513756878439219,1.0463323312150388
1.1650825412706352,1.0415615938333989
1.1787893946973487,1.0360618135537176
1.192496248124062,1.0248875696707185
1.2062031015507753,1.0125509677825653
1.2199099549774886,1.005558981306331
1.233616808404202,0.992207968773178
1.2473236618309154,0.9821882994831174
1.2610305152576287,0.9766275049536209
1.274737368684342,0.9651374001165047
1.2884442221110555,0.9587725233511565
1.3021510755377688,0.9531676756372781
1.315857928964482,0.9548094814586516
1.3295647823911956,0.9548293243428773
1.3432716358179089,0.9564054698700776
1.3569784892446222,0.9583413886152129
1.3706853426713355,0.9643881886009436
1.384392196098049,0.9714731926004376
1.3980990495247623,0.9799483681297488
1.4118059029514756,0.9878961081564462
1.4255127563781889,0.9921254264690804
1.4392196098049024,1.0029517564987174
1.4529264632316157,1.0077234112509919
1.466633316658329,1.0125912857343728
1.4803401700850425,1.0156301304117596
1.4940470235117558,1.0185671923661497
1.507753876938469,1.019448174747254
1.5214607303651824,1.0177330888253153
1.5351675837918959,1.0214852623206405
1.5488744372186092,1.0158979688748873
1.5625812906453225,1.0144027237080147
1.5762881440720358,1.0100467229951917
1.5899949974987493,1.0018700782530523
1.6037018509254626,1.0027076018801002
1.6174087043521759,0.9997564664814802
1.6311155577788894,0.9973555934258338
1.6448224112056027,0.9921281341664306
1.658529264632316,0.994861318893352
1.6722361180590293,0.9954337253085785
1.6859429714857428,0.9979449283932766
1.699649824912456,0.9952970791957245
1.7133566783391694,1.004379081484003
1.7270635317658827,1.0069045513109094
1.7407703851925962,1.0110036942987919
1.7544772386193095,1.0150463217413845
1.7681840920460228,1.022841979994213
1.7818909454727363,1.0238298745140235
1.7955977988994496,1.0259818202221467
1.8093046523261629,1.0264361060922875
1.8230115057528762,1.0207858826161085
1.8367183591795897,1.022197081320988
1.850425212606303,1.022798922045406
1.8641320660330163,1.0132637533294713
1.8778389194597296,1.0051290533635682
1.891545772886443,0.9980651388295249
1.9052526263131564,0.9916059613423769
1.9189594797398697,0.9833175623323126
1.9326663331665832,0.976707947677695
1.9463731865932965,0.966566646251864
1.9600800400200098,0.9611430274965447
1.973786893446723,0.9588355977719663
1.9874937468734366,0.9495721857147666
2.00120060030015,0.9518185622042674
2.014907453726863,0.9514617698162243
2.0286143071535765,0.9555683699346433
2.04232116058029,0.9571227523808078
2.0560280140070035,0.9652082645196521
2.069734867433717,0.974460599331941
2.08344172086043,0.9855621967214709
2.0971485742871434,0.9940789707017041
2.1108554277138567,1.0022359216709105
2.12456228114057,1.0154248437359494
2.1382691345672833,1.0269138705213716
2.1519759879939966,1.034673342010146
2.1656828414207103,1.0384103883956852
2.1793896948474236,1.0478881762557017
2.193096548274137,1.0493709426067321
2.20680340170085,1.050804949049027
2.2205102551275635,1.0501040360947433
2.234217108554277,1.043981267524034
2.24792396198099,1.0422747012238716
2.261630815407704,1.0384673151887265
2.275337668834417,1.0270758209838402
2.2890445222611304,1.0199927154119932
2.3027513756878437,1.007746264405294
2.316458229114557,0.999201010141362
2.3301650825412703,0.9895649713419847
2.3438719359679836,0.9860854991514375
2.3575787893946973,0.980816894612685
2.3712856428214106,0.9732957349838285
2.384992496248124,0.9674421373539386
2.3986993496748372,0.969995324950375
2.4124062031015505,0.9697505368320885
2.426113056528264,0.9700963170115359
2.439819909954977,0.9717016398502839
2.4535267633816904,0.9745684720296769
2.467233616808404,0.9797526426329085
2.4809404702351174,0.9840217767426961
2.4946473236618307,0.9900195907894447
2.508354177088544,0.9951445817382031
2.5220610305152573,0.9995182795533945
2.5357678839419706,1.0024579455713958
2.549474737368684,1.0075996439893635
2.5631815907953976,1.0081926484541783
2.576888444222111,1.008642992484103
2.5905952976488242,1.0062492684960174
2.6043021510755375,1.0061892718538759
2.618009004502251,0.9995493470197934
2.631715857928964,0.9991392136165579
2.6454227113556774,0.9975360737798746
2.659129564782391,0.9905023079581629
2.6728364182091044,0.9887804457008948
2.6865432716358177,0.9887333302303102
2.700250125062531,0.9851130023207556
2.7139569784892443,0.987740354802672
2.7276638319159576,0.984849481861595
2.741370685342671,0.9885064607983278
2.755077538769384,0.9956938710768255
2.768784392196098,0.995950704332122
2.7824912456228112,1.0043498459141624
2.7961980990495245,1.0096530232666918
2.809904952476238,1.0159709076995185
2.823611805902951,1.0200456675897234
2.8373186593296644,1.0306318428257761
2.8510255127563777,1.0348560578426826
2.8647323661830915,1.0374977825778662
2.8784392196098048,1.0393352438094372
2.892146073036518,1.0431042474504264
2.9058529264632313,1.0370226233206314
2.9195597798899446,1.0333267285046845
2.933266633316658,1.0305946418318062
2.9469734867433712,1.0224709149497067
2.960680340170085,1.0151678736988996
2.9743871935967983,1.0075931984098827
2.9880940470235116,0.993376901418768
3.001800900450225,0.9854230333290119
3.015507753876938,0.976446850900402
3.0292146073036514,0.9697534299971066
3.0429214607303647,0.961573527251482
3.056628314157078,0.9538049795626691
3.0703351675837918,0.9473407808697061
3.084042021010505,0.9477701532638999
3.0977488744372184,0.949938020537672
3.1114557278639317,0.9502332439882086
3.125162581290645,0.9556299007303894
3.1388694347173582,0.9569577930422902
3.1525762881440715,0.968212791244976
3.1662831415707853,0.9784494222529126
3.1799899949974986,0.9887209693407587
3.193696848424212,0.9975374311719948
3.207403701850925,1.009303981899197
3.2211105552776385,1.0163014864332214
3.2348174087043517,1.025112250192475
3.248524262131065,1.0335599489717522
3.262231115557779,1.0413090492826491
3.275937968984492,1.044386728741505
3.2896448224112054,1.0452798870688698
3.3033516758379187,1.0386541605340998
3.317058529264632,1.040682152234201
3.3307653826913453,1.0375616720737002
3.3444722361180586,1.0319209387328034
3.358179089544772,1.0283869333150593
3.3718859429714856,1.0188321668123435
3.385592796398199,1.01062148738024
3.399299649824912,1.0039284707367377
3.4130065032516255,0.9995393563742785
3.4267133566783388,0.9966905786745406
3.440420210105052,0.9867834267586386
3.4541270635317654,0.9858413111650494
3.467833916958479,0.9823861948494507
3.4815407703851924,0.9803997257298107
3.4952476238119057,0.9842621546049832
3.508954477238619,0.9832950043919905
3.5226613306653323,0.9872502380027953
3.5363681840920456,0.9903817006877628
3.550075037518759,0.9921741953148423
3.5637818909454726,0.9993458216908523
3.577488744372186,1.0030070649864256
3.591195597798899,1.003056385174599
3.6049024512256125,1.0047180332447705
3.6186093046523258,1.0073992871004214
3.632316158079039,1.005271780842925
3.6460230115057524,1.004532749293256
3.659729864932466,1.0005859596622535
3.6734367183591794,0.99937819456579
3.6871435717858927,0.992877577670753
3.700850425212606,0.9896163456247862
3.7145572786393193,0.9848552056421778
3.7282641320660326,0.9831837736492318
3.741970985492746,0.9744656270947812
3.755677838919459,0.971326752642428
3.769384692346173,0.9729836333024053
3.783091545772886,0.9719442278679502
3.7967983991995995,0.9762805733023591
3.810505252626313,0.9763776346660517
3.824212106053026,0.9831287271178824
3.8379189594797394,0.9870883765994187
3.8516258129064527,0.9927816228826575
3.8653326663331664,0.9998400510479625
3.8790395197598797,1.0084784988881945
3.892746373186593,1.0176641278306182
3.9064532266133063,1.0248197491750397
3.9201600800400196,1.0318620195755857
3.933866933466733,1.0421180363934448
3.947573786893446,1.0462770829391397
3.96128064032016,1.0494393932467865
3.974987493746873,1.0512009464297338
3.9886943471735865,1.0471705942963578
4.0024012006003,1.0481412395052137
4.016108054027013,1.039254536241323
4.029814907453726,1.0308295733181905
4.04352176088044,1.0229327220951059
4.057228614307153,1.0150323492894189
4.070935467733866,1.0011984112547103
4.08464232116058,0.9933189013683192
4.098349174587293,0.9836287849024129
4.112056028014007,0.9724143634889298
4.12576288144072,0.9635192218335009
4.139469734867434,0.9568334163592658
4.153176588294147,0.9545559933262244
4.16688344172086,0.9470034342381066
4.1805902951475735,0.9494275293733837
4.194297148574287,0.9499677868189859
4.208004002001,0.9528103404291802
4.221710855427713,0.959976044970577
4.235417708854427,0.9686547708186833
4.24912456228114,0.9745166328266034
4.262831415707853,0.9820030014160821
4.276538269134567,0.9953733603665699
4.29024512256128,0.9993511233242465
4.303951975987993,1.0067838458900054
4.317658829414707,1.016269732066736
4.331365682841421,1.0229845732824558
4.345072536268134,1.0266923838564856
4.358779389694847,1.0330377738854548
4.3724862431215605,1.0316401540128028
4.386193096548274,1.0281162051102077
4.399899949974987,1.0312091272708628
4.4136068034017,1.026319221899825
4.427313656828414,1.0214506727954404
4.441020510255127,1.0168870264458816
4.45472736368184,1.0142418856403213
4.468434217108554,1.0092215130485933
4.482141070535267,1.002730730097016
4.49584792396198,0.9970100530474558
4.5095547773886935,0.9966831848696751
4.523261630815408,0.9945521725376842
4.536968484242121,0.9982056459274691
4.550675337668834,0.9935109294920488
4.5643821910955475,0.99664937419335
4.578089044522261,0.9982993892523002
4.591795897948974,1.0010180735474357
4.605502751375687,1.0051778605908366
4.619209604802401,1.0088591460933078
4.632916458229114,1.0103127592482364
4.646623311655827,1.0143239759585563
4.660330165082541,1.012740074131515
4.674037018509254,1.0162571486764775
4.687743871935967,1.0109138043116197
4.7014507253626805,1.014380030676862
4.715157578789395,1.0122740431365946
4.728864432216108,1.0043437445614019
4.742571285642821,0.9985570961736034
4.756278139069535,0.9972880646031697
4.769984992496248,0.9853042598244791
4.783691845922961,0.9822295188231287
4.7973986993496744,0.9708987515103791
4.811105552776388,0.9686192793184665
4.824812406203101,0.9648808909846669
4.838519259629814,0.9628601999481444
4.852226113056528,0.9585575060991599
4.865932966483241,0.9571729487198367
4.879639819909954,0.9597903093385154
4.8933466733366675,0.9633722801171308
4.907053526763381,0.9698916074064768
4.920760380190095,0.9774971276785667
4.934467233616808,0.9876522937296698
4.948174087043522,0.9958583849750697
4.961880940470235,1.0052894504071603
4.975587793896948,1.0159468117692367
4.9892946473236615,1.0293493080998568
5.003001500750375,1.036439428552472
5.016708354177088,1.0399078300589366
5.030415207603801,1.0441115489982893
5.044122061030515,1.0500701447662102
5.057828914457228,1.0508369964417152
5.071535767883941,1.0531813307479405
5.0852426213106545,1.051651382743735
5.098949474737368,1.0438134014687093
5.112656328164081,1.0399935225824972
5.126363181590795,1.0309982746941253
5.140070035017509,1.0218192713328504
5.153776888444222,1.0085821177344196
5.167483741870935,1.0003955992673867
5.1811905952976485,0.9911189286360019
5.194897448724362,0.9839480121628161
5.208604302151075,0.9727332104326707
5.222311155577788,0.9645669546299062
5.236018009004502,0.9605006554896576
5.249724862431215,0.9579898379277509
5.263431715857928,0.9576846301237972
5.2771385692846415,0.9611987924727965
5.290845422711355,0.9609709154299074
5.304552276138068,0.9666030905116934
5.318259129564782,0.9734352898604977
5.331965982991496,0.9757006340593114
5.345672836418209,0.9826628491987697
5.359379689844922,0.990159877416673
5.3730865432716355,0.9961024207313856
5.386793396698349,1.0018959852147964
5.400500250125062,1.0085772563493896
5.414207103551775,1.0142132277352753
5.427913956978489,1.0144531672396377
5.441620810405202,1.0183012321959641
5.455327663831915,1.0167509557379448
5.4690345172586285,1.0148098950994113
5.482741370685342,1.0099140818918282
5.496448224112055,1.0114675213665636
5.510155077538768,1.0086517369869539
5.523861930965483,1.0032010327162788
5.537568784392196,0.9999683440329996
5.551275637818909,0.9984539123406463
5.5649824912456225,0.9911622793799838
5.578689344672336,0.9910231176386107
5.592396198099049,0.9894529943864955
5.606103051525762,0.9932280171336882
5.619809904952476,0.9949397167059669
5.633516758379189,0.9983820899807326
5.647223611805902,1.0054141844790883
5.660930465232616,1.006960295858178
5.674637318659329,1.014202138100969
5.688344172086042,1.0194367257559196
5.7020510255127554,1.0227440747835397
5.71575787893947,1.02261979336542
5.729464732366183,1.0290359925165808
5.743171585792896,1.0302857155456608
5.7568784392196095,1.0291347555657928
5.770585292646323,1.0288925537314433
5.784292146073036,1.0256878808492333
5.797998999499749,1.0214430569951536
5.811705852926463,1.0145180307081558
5.825412706353176,1.0048442886252995
5.839119559779889,0.9974317890742139
5.852826413206603,0.9877258483031912
5.866533266633316,0.9822904982309517
5.880240120060029,0.9689085073907976
5.8939469734867425,0.9594810639688984
5.907653826913456,0.95488085728397
5.92136068034017,0.9535473051485692
5.935067533766883,0.9490264209966977
5.9487743871935965,0.9476547994219859
5.96248124062031,0.9520119389416428
5.976188094047023,0.9537160625780882
5.989894947473736,0.9579396079338321
6.00360180090045,0.9652999223926513
6.017308654327163,0.9787294483118223
6.031015507753876,0.991331752633832
6.04472236118059,0.9979247141756921
6.058429214607303,1.0107340000759029
6.072136068034016,1.0220532038781243
6.0858429214607295,1.0283496209022573
6.099549774887443,1.0329995113184043
6.113256628314156,1.0431763565775474
6.12696348174087,1.0446303453608907
6.1406703351675835,1.05007199243323
6.154377188594297,1.0521654606752402
6.16808404202101,1.0495741783791142
6.181790895447723,1.0435786236149387
6.195497748874437,1.0388460169821965
6.20920460230115,1.0321893699614113
6.222911455727863,1.021269404077542
6.236618309154577,1.0168187595050793
6.25032516258129,1.006101430739198
6.264032016008003,0.9989682338160458
6.2777388694347165,0.9892025685712788
6.29144572286143,0.9844654684793899
6.305152576288143,0.9747554472601072
6.318859429714857,0.9735863216888356
6.3325662831415706,0.9697442471271908
6.346273136568284,0.9695881325697127
6.359979989994997,0.9700930476210089
6.37368684342171,0.9743847294896342
6.387393696848424,0.9757434221215576
6.401100550275137,0.9813209559701008
6.41480740370185,0.9837989991783463
6.428514257128564,0.9924437398479594
6.442221110555277,0.9958342822506215
6.45592796398199,0.9991559686964054
6.4696348174087035,1.0008128767063496
6.483341670835417,1.0068882618002326
6.49704852426213,1.0083753356274898
6.510755377688843,1.0048834762581293
6.524462231115558,1.006247919472743
6.538169084542271,1.0043597280755652
6.551875937968984,0.9995989582984748
6.5655827913956974,0.9990297411400196
6.579289644822411,0.9950123913727966
6.592996498249124,0.9907788419824759
6.606703351675837,0.9877788859170792
6.620410205102551,0.9858033325803248
6.634117058529264,0.9836668759086808
6.647823911955977,0.985412021876492
6.6615307653826905,0.9834656325354243
6.675237618809404,0.9878743935080754
6.688944472236117,0.9898055513495656
6.70265132566283,0.9942978860066358
6.716358179089544,0.9989082936614279
6.730065032516258,1.0052726040335087
6.743771885942971,1.0147077653088046
6.7574787393696845,1.0197378080038688
6.771185592796398,1.027565834577953
6.784892446223111,1.0325675577296036
6.798599299649824,1.037635576205144
6.812306153076538,1.0414315126226963
6.826013006503251,1.042025009808784
6.839719859929964,1.0441661763286096
6.8534267133566775,1.0416471335503226
6.867133566783391,1.0317647429077481
6.880840420210104,1.0266434662217623
6.894547273636817,1.0207601943400335
6.908254127063531,1.0117016357020279
6.921960980490245,1.001859596845713
6.935667833916958,0.9950741573257832
6.9493746873436715,0.9827322789823884
6.963081540770385,0.974667142758992
6.976788394197098,0.9624050047515201
6.990495247623811,0.9577103262086936
7.004202101050525,0.9523506637661895
7.017908954477238,0.9488192712854063
7.031615807903951,0.9424022635525521
7.0453226613306645,0.9456741274631884
7.059029514757378,0.9525978694881241
7.072736368184091,0.9568474836880672
7.086443221610804,0.96195152767448
7.100150075037518,0.9723622542801235
7.113856928464231,0.98345886166479
7.127563781890945,0.9904150603158461
7.1412706353176585,1.001554313371995
7.154977488744372,1.0123268953185847
7.168684342171085,1.0184298131416727
7.182391195597798,1.0304819818909148
7.196098049024512,1.0356011578133206
7.209804902451225,1.0359273030104377
7.223511755877938,1.0423106355571459
7.2372186093046516,1.0425514619979521
7.250925462731365,1.0403249275563333
7.264632316158078,1.0383979255933546
7.278339169584791,1.0336208896404417
7.292046023011505,1.0252705214956934
7.305752876438218,1.0219734094938484
7.319459729864932,1.0131740564153096
7.3331665832916455,1.0093975958308181
7.346873436718359,1.0016019281058743
