time,flux
0.0,0.9783036725902579
0.013706853426713355,0.979227346634127
0.02741370685342671,0.9821699630125101
0.041120560280140064,0.9859205878100313
0.05482741370685342,0.9906330573164267
0.06853426713356678,0.9936873642605881
0.08224112056028013,0.9979089900380825
0.09594797398699349,1.0025330057205237
0.10965482741370684,1.0075393429219457
0.1233616808404202,1.0112857619824969
0.13706853426713356,1.0151853049286685
0.1507753876938469,1.0198185148676822
0.16448224112056026,1.0219612372328657
0.1781890945472736,1.0239486818455952
0.19189594797398699,1.0268472085300646
0.20560280140070034,1.0265785486928007
0.21930965482741369,1.0272478423897498
0.23301650825412704,1.025784885705756
0.2467233616808404,1.0253549423560135
0.26043021510755376,1.0238654730229277
0.2741370685342671,1.0200632580984992
0.28784392196098046,1.0174448344616405
0.3015507753876938,1.0146351230157054
0.31525762881440716,1.011023973538129
0.3289644822411205,1.007214840952785
0.34267133566783387,1.0024349638733467
0.3563781890945472,0.999668596130473
0.3700850425212606,0.9973050430980793
0.38379189594797397,0.9936512926792074
0.3974987493746873,0.99089162399084
0.41120560280140067,0.9892644984568216
0.424912456228114,0.9873182762796658
0.43861930965482737,0.98538306816655
0.4523261630815407,0.9841519870737311
0.46603301650825407,0.9841689995924039
0.4797398699349674,0.9847833630635976
0.4934467233616808,0.9841880207731138
0.5071535767883941,0.9847554752378406
0.5208604302151075,0.9847848760486293
0.5345672836418208,0.9859189443701017
0.5482741370685342,0.9866155676908414
0.5619809904952475,0.9859481766409546
0.5756878439219609,0.9882292799101694
0.5893946973486743,0.9890891190394054
0.6031015507753876,0.9895507174947079
0.616808404202101,0.9903239876118911
0.6305152576288143,0.9924856448120062
0.6442221110555277,0.9957073260018734
0.657928964482241,0.9935621113630744
0.6716358179089544,0.9946386784741347
0.6853426713356677,0.9956427374452493
0.6990495247623811,0.9966959961195875
0.7127563781890944,0.9987038442344315
0.7264632316158078,1.0000679612985925
0.7401700850425212,1.0020106567783316
0.7538769384692345,1.0035932609409741
0.7675837918959479,1.0066685232415067
0.7812906453226612,1.0087563663116963
0.7949974987493746,1.0095369571847408
0.8087043521760879,1.0117448194497074
0.8224112056028013,1.0133665545206734
0.8361180590295146,1.0165233521235049
0.849824912456228,1.0176495068578364
0.8635317658829413,1.0178352198323173
0.8772386193096547,1.019311536397335
0.8909454727363681,1.019305019849674
0.9046523261630814,1.0193478726928562
0.9183591795897948,1.0197170304262042
0.9320660330165081,1.018129708438235
0.9457728864432215,1.0156768005616295
0.9594797398699348,1.014590915775088
0.9731865932966483,1.0135560771853962
0.9868934467233615,1.0110188955540633
1.000600300150075,1.0074807833087027
1.0143071535767882,1.0038272855378523
1.0280140070035018,1.0010797355762655
1.041720860430215,0.9983525755657565
1.0554277138569284,0.9954908399066396
1.0691345672836416,0.9929685864318482
1.0828414207103552,0.9905150164597111
1.0965482741370685,0.9867440411230357
1.1102551275637818,0.9836052663137518
1.123961980990495,0.9827813529804268
1.1376688344172086,0.9807467139621384
1.1513756878439219,0.9792089551173431
1.1650825412706352,0.9779576607818552
1.1787893946973487,0.9780244493616684
1.192496248124062,0.9770046473312901
1.2062031015507753,0.9778337583421701
1.2199099549774886,0.9779198424579622
1.233616808404202,0.9803521629409244
1.2473236618309154,0.9809986331115622
1.2610305152576287,0.9843172408284889
1.274737368684342,0.9856597624199106
1.2884442221110555,0.9886870110445888
1.3021510755377688,0.9920806699615078
1.315857928964482,0.9955729208593044
1.3295647823911956,0.9996931230526799
1.3432716358179089,1.0013671295442093
1.3569784892446222,1.0064893927054812
1.3706853426713355,1.0099685306146793
1.384392196098049,1.0124928889131883
1.3980990495247623,1.0162224483474462
1.4118059029514756,1.018186642800462
1.4255127563781889,1.0216225309170264
1.4392196098049024,1.0226077207220052
1.4529264632316157,1.024460502578029
1.466633316658329,1.025416979915776
1.4803401700850425,1.0251086639896685
1.4940470235117558,1.0254983320172744
1.507753876938469,1.0248317238505606
1.5214607303651824,1.0219791310265787
1.5351675837918959,1.02096835333616
1.5488744372186092,1.0174140135872125
1.5625812906453225,1.013952573122702
1.5762881440720358,1.0112657293727438
1.5899949974987493,1.0076164961308476
1.6037018509254626,1.0042854886844488
1.6174087043521759,1.0000244612748137
1.6311155577788894,0.9961805933329808
1.6448224112056027,0.9924568152450604
1.658529264632316,0.98866707359673
1.6722361180590293,0.9867311044447247
1.6859429714857428,0.9841185804297317
1.699649824912456,0.9828282169882514
1.7133566783391694,0.979319320489792
1.7270635317658827,0.9809758835845216
1.7407703851925962,0.9803230411782815
1.7544772386193095,0.9807317661152112
1.7681840920460228,0.9831950116153753
1.7818909454727363,0.9820757909706634
1.7955977988994496,0.9839946606124311
1.8093046523261629,0.9857223336928089
1.8230115057528762,0.9871321855452
1.8367183591795897,0.9884938856800861
1.850425212606303,0.99220241017196
1.8641320660330163,0.99177387265082
1.8778389194597296,0.9939032076061513
1.891545772886443,0.9965605348044951
1.9052526263131564,0.9986374667213002
1.9189594797398697,0.9983064382940404
1.9326663331665832,1.0001361678716196
1.9463731865932965,1.0011360261558064
1.9600800400200098,1.0021835295164945
1.973786893446723,1.0018494352560618
1.9874937468734366,1.002912458209106
2.00120060030015,1.0045184458589245
2.014907453726863,1.0043838884344862
2.0286143071535765,1.0062677623796592
2.04232116058029,1.0075290160552461
2.0560280140070035,1.008971589512133
2.069734867433717,1.010799763875024
2.08344172086043,1.0127076425161976
2.0971485742871434,1.013448665446168
2.1108554277138567,1.0157465920533688
2.12456228114057,1.0163617618413354
2.1382691345672833,1.0172995933098574
2.1519759879939966,1.0181673331934156
2.1656828414207103,1.0185466083977397
2.1793896948474236,1.0176038152527693
2.193096548274137,1.0177521729174712
2.20680340170085,1.015709757221127
2.2205102551275635,1.0154430844987803
2.234217108554277,1.0136608900656099
2.24792396198099,1.0109550254793458
2.261630815407704,1.0074127410471068
2.275337668834417,1.004993822455529
2.2890445222611304,1.0006588120167084
2.3027513756878437,0.9985637146520238
2.316458229114557,0.9934820214175454
2.3301650825412703,0.9902632242700221
2.3438719359679836,0.9854100290663742
2.3575787893946973,0.9843094215670086
2.3712856428214106,0.9794712716253461
2.384992496248124,0.9775364188853314
2.3986993496748372,0.9768256507067961
2.4124062031015505,0.9744478442392487
2.426113056528264,0.9741019565638142
2.439819909954977,0.9740828096530599
2.4535267633816904,0.9745900680783675
2.467233616808404,0.9753296818768671
2.4809404702351174,0.9781049683004395
2.4946473236618307,0.9816661286038321
2.508354177088544,0.9836976979481364
2.5220610305152573,0.986589480028625
2.5357678839419706,0.9904650294569193
2.549474737368684,0.9937605673799801
2.5631815907953976,0.9990287246945709
2.576888444222111,1.001342825806498
2.5905952976488242,1.0063175238310615
2.6043021510755375,1.0091409608081923
2.618009004502251,1.0121034509965692
2.631715857928964,1.0146947053597961
2.6454227113556774,1.0171568249980227
2.659129564782391,1.0192336841476866
2.6728364182091044,1.0210964423208673
2.6865432716358177,1.0214758068404723
2.700250125062531,1.023692206344656
2.7139569784892443,1.022640266805766
2.7276638319159576,1.0220391174448626
2.741370685342671,1.0212800585272688
2.755077538769384,1.021386321701351
2.768784392196098,1.018670523135011
2.7824912456228112,1.017473068402551
2.7961980990495245,1.0155029356939038
2.809904952476238,1.0128287957752489
2.823611805902951,1.010093397407203
2.8373186593296644,1.0074361648824965
2.8510255127563777,1.0040650365653223
2.8647323661830915,1.0011737171412272
2.8784392196098048,0.9982188813497472
2.892146073036518,0.9952391546432566
2.9058529264632313,0.9924314765566271
2.9195597798899446,0.9893849897772271
2.933266633316658,0.9873876122352304
2.9469734867433712,0.9853109484845372
2.960680340170085,0.9842906958741346
2.9743871935967983,0.9827485944585346
2.9880940470235116,0.9805558312297511
3.001800900450225,0.9810375912831376
3.015507753876938,0.981431268576017
3.0292146073036514,0.9809122014265634
3.0429214607303647,0.9809214316293441
3.056628314157078,0.9833640927479924
3.0703351675837918,0.9847167111681469
3.084042021010505,0.9851685675899646
3.0977488744372184,0.9867424362363191
3.1114557278639317,0.9892495071719463
3.125162581290645,0.990840974884348
3.1388694347173582,0.9941573921244858
3.1525762881440715,0.9962707145842081
3.1662831415707853,0.9980108274170331
3.1799899949974986,1.0014439534306385
3.193696848424212,1.0026492285766033
3.207403701850925,1.0041991331429088
3.2211105552776385,1.0050983437750138
3.2348174087043517,1.006347366495027
3.248524262131065,1.009089219023582
3.262231115557779,1.0087605257673495
3.275937968984492,1.009696717359539
3.2896448224112054,1.0120770136319455
3.3033516758379187,1.011196229401402
3.317058529264632,1.0129529592841358
3.3307653826913453,1.0126073729193232
3.3444722361180586,1.0131755158019224
3.358179089544772,1.0143757014825008
3.3718859429714856,1.0130528750102104
3.385592796398199,1.0144403799289463
3.399299649824912,1.0138641461590572
3.4130065032516255,1.014224873318244
3.4267133566783388,1.013449001976377
3.440420210105052,1.0134398835441303
3.4541270635317654,1.0128705794851773
3.467833916958479,1.0119530416790927
3.4815407703851924,1.010831253203482
3.4952476238119057,1.0092924017928444
3.508954477238619,1.007816720618354
3.5226613306653323,1.004092897299168
3.5363681840920456,1.001954293390663
3.550075037518759,1.0007558951273126
3.5637818909454726,0.9963959511745821
3.577488744372186,0.9929269328082518
3.591195597798899,0.9916773829946013
3.6049024512256125,0.9861580041347566
3.6186093046523258,0.983612659507282
3.632316158079039,0.9808900739984096
3.6460230115057524,0.9784565526460244
3.659729864932466,0.9753530555138125
3.6734367183591794,0.9743843115916752
3.6871435717858927,0.9735871647622327
3.700850425212606,0.9733882255293282
3.7145572786393193,0.9741892418271497
3.7282641320660326,0.9755043627473234
3.741970985492746,0.9767414506567429
3.755677838919459,0.9793391962235384
3.769384692346173,0.9849585114061105
3.783091545772886,0.9864599338049951
3.7967983991995995,0.9905983943792277
3.810505252626313,0.996799262318992
3.824212106053026,1.0010912720812308
3.8379189594797394,1.0040477434744757
3.8516258129064527,1.0098527447212902
3.8653326663331664,1.0140899717543403
3.8790395197598797,1.017142371507984
3.892746373186593,1.0202111790593733
3.9064532266133063,1.0226468564529902
3.9201600800400196,1.0247888858588068
3.933866933466733,1.0257387592262552
3.947573786893446,1.0265758771657656
3.96128064032016,1.026318322810386
3.974987493746873,1.0252664461824719
3.9886943471735865,1.0243144435218887
4.0024012006003,1.0216739834486799
4.016108054027013,1.0200623820901273
4.029814907453726,1.016847255650148
4.04352176088044,1.0138737193192129
4.057228614307153,1.0101701694976615
4.070935467733866,1.0070644029004499
4.08464232116058,1.0034804454352895
4.098349174587293,1.001324342722565
4.112056028014007,0.9978295145681207
4.12576288144072,0.9951672645257033
4.139469734867434,0.9909500135848976
4.153176588294147,0.9904713130409393
4.16688344172086,0.9895662402852438
4.1805902951475735,0.9877292820815786
4.194297148574287,0.9858602302184994
4.208004002001,0.9838637977712826
4.221710855427713,0.9845916083734033
4.235417708854427,0.9845571712929486
4.24912456228114,0.9827058913256137
4.262831415707853,0.9834278415967924
4.276538269134567,0.9841401646092149
4.29024512256128,0.9846097489477097
4.303951975987993,0.9849697013456662
4.317658829414707,0.9863553978890212
4.331365682841421,0.987186247258043
4.345072536268134,0.9869503161818761
4.358779389694847,0.9894794588340051
4.3724862431215605,0.9898777716712551
4.386193096548274,0.9920959225185312
4.399899949974987,0.9937344611848268
4.4136068034017,0.995449090519118
4.427313656828414,0.9967614928676158
4.441020510255127,0.998909059675151
4.45472736368184,1.001725178198135
4.468434217108554,1.002514954142655
4.482141070535267,1.004605320711922
4.49584792396198,1.0074940384201103
4.5095547773886935,1.0093406402929301
4.523261630815408,1.0103799493037342
4.536968484242121,1.012546113063037
4.550675337668834,1.0137419886347623
4.5643821910955475,1.0150407582834777
4.578089044522261,1.0157088545090753
4.591795897948974,1.0164194732742262
4.605502751375687,1.0169792068872698
4.619209604802401,1.0165061727899365
4.632916458229114,1.016717986730238
4.646623311655827,1.016277762761223
4.660330165082541,1.0164227522915867
4.674037018509254,1.0142022518975498
4.687743871935967,1.0132229398574633
4.7014507253626805,1.0113447013682824
4.715157578789395,1.0099787847863646
4.728864432216108,1.0076817305603354
4.742571285642821,1.0067365448260663
4.756278139069535,1.0030684298654358
4.769984992496248,1.0013263964238877
4.783691845922961,0.9989627187899129
4.7973986993496744,0.9954193195641862
4.811105552776388,0.9930020237371077
4.824812406203101,0.9921424657864856
4.838519259629814,0.9884049613166114
4.852226113056528,0.9871670556868065
4.865932966483241,0.9845956217181373
4.879639819909954,0.9828183844085322
4.8933466733366675,0.979927471665326
4.907053526763381,0.9792936400095988
4.920760380190095,0.9778401706852122
4.934467233616808,0.9781763917875451
4.948174087043522,0.9768159421845785
4.961880940470235,0.9778359035600621
4.975587793896948,0.9778808577489586
4.9892946473236615,0.9792387156148832
5.003001500750375,0.9811034709536064
5.016708354177088,0.9845710081405545
5.030415207603801,0.9864289906119424
5.044122061030515,0.9893995029941367
5.057828914457228,0.9924691388485367
5.071535767883941,0.9983993328991991
5.0852426213106545,1.0009579973589822
5.098949474737368,1.0061699459479374
5.112656328164081,1.0092033160022973
5.126363181590795,1.0129684708854005
5.140070035017509,1.017617859121387
5.153776888444222,1.0198845335558115
5.167483741870935,1.0235622375983044
5.1811905952976485,1.0251930537252503
5.194897448724362,1.0273506988019938
5.208604302151075,1.0276485023568938
5.222311155577788,1.0271369826550296
5.236018009004502,1.026370535677784
5.249724862431215,1.0245874816440286
5.263431715857928,1.0222086682539626
5.2771385692846415,1.0208768631831977
5.290845422711355,1.0169353605983977
5.304552276138068,1.0123195238241107
5.318259129564782,1.0099458892109667
5.331965982991496,1.0051946046116618
5.345672836418209,1.000986883761224
5.359379689844922,0.9966698212213534
5.3730865432716355,0.993872863300217
5.386793396698349,0.9899381885316917
5.400500250125062,0.9873059428976952
5.414207103551775,0.9854057493389815
5.427913956978489,0.9836301323606197
5.441620810405202,0.9819024629343402
5.455327663831915,0.9809360818424604
5.4690345172586285,0.9800249352816405
5.482741370685342,0.9802878379416328
5.496448224112055,0.9813038151056723
5.510155077538768,0.981636173340216
5.523861930965483,0.9846233345256823
5.537568784392196,0.9858568787655441
5.551275637818909,0.9861767606829384
5.5649824912456225,0.9880683921144781
5.578689344672336,0.989334593655174
5.592396198099049,0.9913565585114582
5.606103051525762,0.9925276605839942
5.619809904952476,0.9937382630809989
5.633516758379189,0.9957609190752396
5.647223611805902,0.9969202107803247
5.660930465232616,0.9970979087382106
5.674637318659329,0.9987303166749911
5.688344172086042,1.0004807662337263
5.7020510255127554,1.0006355854735274
5.71575787893947,1.0019323379024059
5.729464732366183,1.003126873917999
5.743171585792896,1.0046283231510127
5.7568784392196095,1.0062823854077236
5.770585292646323,1.0063035807690373
5.784292146073036,1.0089947615131905
5.797998999499749,1.0101158217749142
5.811705852926463,1.0119650220675411
5.825412706353176,1.0131836495113091
5.839119559779889,1.0148632455556963
5.852826413206603,1.0161051181308909
5.866533266633316,1.0170691717689377
5.880240120060029,1.0175098118840311
5.8939469734867425,1.0170847497432078
5.907653826913456,1.0167345311308873
5.92136068034017,1.0179843367642207
5.935067533766883,1.0153634211585365
5.9487743871935965,1.0153444818955804
5.96248124062031,1.0133540625386281
5.976188094047023,1.0099746303832777
5.989894947473736,1.006666164472273
6.00360180090045,1.005245367127747
6.017308654327163,1.0020408248570776
6.031015507753876,0.9980141286727363
6.04472236118059,0.9957067565765478
6.058429214607303,0.9922976972208474
6.072136068034016,0.9881306688776619
6.0858429214607295,0.9869054220283296
6.099549774887443,0.9828641141274669
6.113256628314156,0.9811565040162195
6.12696348174087,0.9795711748481528
6.1406703351675835,0.9773656154243179
6.154377188594297,0.9770417336350941
6.16808404202101,0.9779390747614838
6.181790895447723,0.9766890507842694
6.195497748874437,0.9766413378909253
6.20920460230115,0.978446524319005
6.222911455727863,0.980048205957048
6.236618309154577,0.981894070190082
6.25032516258129,0.985879395444983
6.264032016008003,0.987703627807684
6.2777388694347165,0.9893918059092054
6.29144572286143,0.9930741555553061
6.305152576288143,0.9965339544409032
6.318859429714857,1.0008968301016277
6.3325662831415706,1.0031753013058506
6.346273136568284,1.0061230480255998
6.359979989994997,1.0091471189710888
6.37368684342171,1.0126533852973256
6.387393696848424,1.01583761834594
6.401100550275137,1.017674738746887
6.41480740370185,1.0201018827699806
6.428514257128564,1.0219195685583506
6.442221110555277,1.0233122711626468
6.45592796398199,1.0233317712294179
6.4696348174087035,1.024358974863629
6.483341670835417,1.0239397977423785
6.49704852426213,1.0221831757616664
6.510755377688843,1.0209996319631232
6.524462231115558,1.0201764055572013
6.538169084542271,1.0181839566539372
6.551875937968984,1.0140516994737234
6.5655827913956974,1.0116861199850886
6.579289644822411,1.0080899356883908
6.592996498249124,1.0043488038612152
6.606703351675837,1.0010337476082842
6.620410205102551,0.9981452414158937
6.634117058529264,0.9930214320008806
6.647823911955977,0.9894406690097218
6.6615307653826905,0.9864513448177097
6.675237618809404,0.9841653365184703
6.688944472236117,0.9820494632840281
6.70265132566283,0.9808742079558538
6.716358179089544,0.9790252801486254
6.730065032516258,0.9784299353619736
6.743771885942971,0.9770817657429194
6.7574787393696845,0.9787074138028954
6.771185592796398,0.9793103344142877
6.784892446223111,0.981169715366181
6.798599299649824,0.9824562125315919
6.812306153076538,0.9848203439377199
6.826013006503251,0.9877512116399675
6.839719859929964,0.9900784347332001
6.8534267133566775,0.9927630904522055
6.867133566783391,0.9945991508938545
6.880840420210104,0.9965523733049179
6.894547273636817,0.9993735119399577
6.908254127063531,1.0013855290550273
6.921960980490245,1.0022238763068478
6.935667833916958,1.0036556153569847
6.9493746873436715,1.0046976738723845
6.963081540770385,1.0058045609327342
6.976788394197098,1.0081625799541103
6.990495247623811,1.0083915908070458
7.004202101050525,1.0079043948071136
7.017908954477238,1.0089198531122512
7.031615807903951,1.010255712694573
7.0453226613306645,1.0118736603776466
7.059029514757378,1.0099326257308268
7.072736368184091,1.010536039591483
7.086443221610804,1.0125470839458857
7.100150075037518,1.0129822079995836
7.113856928464231,1.0136804545083153
7.127563781890945,1.0127521344114396
7.1412706353176585,1.0134340480173114
7.154977488744372,1.0138671199645515
7.168684342171085,1.014514965366491
7.182391195597798,1.0145348854625473
7.196098049024512,1.0132171382952129
7.209804902451225,1.0127299828015095
7.223511755877938,1.0124083158572472
7.2372186093046516,1.0120058665069367
7.250925462731365,1.008045027687611
7.264632316158078,1.0048998203078081
7.278339169584791,1.001694798517967
7.292046023011505,0.9996517664769906
7.305752876438218,0.9952518329287902
7.319459729864932,0.9922558815094373
7.3331665832916455,0.9882721009224015
7.346873436718359,0.9852780716877247
