time,flux
0.0,0.9783576780688761
0.013706853426713355,0.9819737742146352
0.02741370685342671,0.9870214178939968
0.041120560280140064,0.9910889306158452
0.05482741370685342,0.9961351917848864
0.06853426713356678,1.0005885647765502
0.08224112056028013,1.0060016244502377
0.09594797398699349,1.0092621195505966
0.10965482741370684,1.0133385914733513
0.1233616808404202,1.0165144528947971
0.13706853426713356,1.0182757398283286
0.1507753876938469,1.0204652649002022
0.16448224112056026,1.0213640010817893
0.1781890945472736,1.0211857867916676
0.19189594797398699,1.019667877220307
0.20560280140070034,1.0175549439125244
0.21930965482741369,1.0151965555311628
0.23301650825412704,1.0136701135288142
0.2467233616808404,1.009555984511491
0.26043021510755376,1.0062239673957858
0.2741370685342671,1.0021821543422496
0.28784392196098046,0.9999433812667009
0.3015507753876938,0.9957017120507758
0.31525762881440716,0.9933963123540009
0.3289644822411205,0.9929954268440623
0.34267133566783387,0.9890124689411834
0.3563781890945472,0.9862091478769708
0.3700850425212606,0.9878409242609962
0.38379189594797397,0.9869979241685509
0.3974987493746873,0.9867779640771336
0.41120560280140067,0.9885259438478013
0.424912456228114,0.9899314337282388
0.43861930965482737,0.9911665627054317
0.4523261630815407,0.9927340593545011
0.46603301650825407,0.9958261996378096
0.4797398699349674,0.997462132417668
0.4934467233616808,0.9977387989397599
0.5071535767883941,1.0009312723612205
0.5208604302151075,1.0016546711974228
0.5345672836418208,1.0030680530419795
0.5482741370685342,1.003022470191601
0.5619809904952475,1.002995669315383
0.5756878439219609,1.0028763779727092
0.5893946973486743,1.0034021030309193
0.6031015507753876,1.0038144705656546
0.616808404202101,1.0031909312949912
0.6305152576288143,1.0033405917408165
0.6442221110555277,1.00183986278328
0.657928964482241,1.0011371261836175
0.6716358179089544,1.0013570353745518
0.6853426713356677,1.0003682911008445
0.6990495247623811,1.002317078764054
0.7127563781890944,1.00152927030045
0.7264632316158078,1.0026564376263327
0.7401700850425212,1.0026440316917475
0.7538769384692345,1.0026773785848897
0.7675837918959479,1.0029150931059272
0.7812906453226612,1.0048044503131486
0.7949974987493746,1.0047345660855582
0.8087043521760879,1.005853473756851
0.8224112056028013,1.0051599431690323
0.8361180590295146,1.004400697915508
0.849824912456228,1.0051625302515559
0.8635317658829413,1.004564465852234
0.8772386193096547,1.004462240601038
0.8909454727363681,1.0036913416325335
0.9046523261630814,1.002188851777019
0.9183591795897948,0.9999156579501062
0.9320660330165081,0.9972672419121528
0.9457728864432215,0.9957221132187436
0.9594797398699348,0.9943543404294758
0.9731865932966483,0.9919229010201619
0.9868934467233615,0.9899324775221793
1.000600300150075,0.9888530556186862
1.0143071535767882,0.9866652706566038
1.0280140070035018,0.9862100452646798
1.041720860430215,0.9844373286808131
1.0554277138569284,0.9865135818494762
1.0691345672836416,0.986907447672359
1.0828414207103552,0.9871897185463155
1.0965482741370685,0.9896225419878123
1.1102551275637818,0.9926782574271122
1.123961980990495,0.996261033532287
1.1376688344172086,0.9995507446267101
1.1513756878439219,1.0036961225504852
1.1650825412706352,1.0081421433252296
1.1787893946973487,1.010191495158096
1.192496248124062,1.0149064190316819
1.2062031015507753,1.0173918680317708
1.2199099549774886,1.021881043171286
1.233616808404202,1.0222325880262486
1.2473236618309154,1.0226892066166353
1.2610305152576287,1.0233181575935804
1.274737368684342,1.0224946522587186
1.2884442221110555,1.020439944188448
1.3021510755377688,1.0175613827060126
1.315857928964482,1.0139235440803416
1.3295647823911956,1.0093532642936967
1.3432716358179089,1.0059908009606253
1.3569784892446222,1.0012163096628595
1.3706853426713355,0.9948574254551462
1.384392196098049,0.9896369125658172
1.3980990495247623,0.9839987269492685
1.4118059029514756,0.9800966212815023
1.4255127563781889,0.9765262280882874
1.4392196098049024,0.9720905890043128
1.4529264632316157,0.9703351449509368
1.466633316658329,0.9694952536059911
1.4803401700850425,0.9701117119299396
1.4940470235117558,0.9719538162391151
1.507753876938469,0.972641456496864
1.5214607303651824,0.9779052241737212
1.5351675837918959,0.9825703720436829
1.5488744372186092,0.9875861404503928
1.5625812906453225,0.9944180262058807
1.5762881440720358,1.0020277783263207
1.5899949974987493,1.0081009140755979
1.6037018509254626,1.0140932295181773
1.6174087043521759,1.0201996262692135
1.6311155577788894,1.0248958925732143
1.6448224112056027,1.0291598854324793
1.658529264632316,1.0324081555960416
1.6722361180590293,1.0355218529318506
1.6859429714857428,1.036748179181767
1.699649824912456,1.035253478355173
1.7133566783391694,1.0332820100294593
1.7270635317658827,1.030242414376392
1.7407703851925962,1.0243164734139014
1.7544772386193095,1.0200566251844851
1.7681840920460228,1.0125052327587982
1.7818909454727363,1.0057547257964035
1.7955977988994496,0.9975900780624424
1.8093046523261629,0.9907718791778422
1.8230115057528762,0.9827186087154521
1.8367183591795897,0.9770830899304983
1.850425212606303,0.9702275963899775
1.8641320660330163,0.9653442000363247
1.8778389194597296,0.96260485337562
1.891545772886443,0.9603274004614738
1.9052526263131564,0.9594154977591689
1.9189594797398697,0.9621978139139089
1.9326663331665832,0.9639628253276732
1.9463731865932965,0.9671650652644592
1.9600800400200098,0.9741234728314877
1.973786893446723,0.980031465131062
1.9874937468734366,0.9866603665461201
2.00120060030015,0.9958181183874205
2.014907453726863,1.0045069792550974
2.0286143071535765,1.013355424710718
2.04232116058029,1.0203546332005125
2.0560280140070035,1.02659194358205
2.069734867433717,1.0335931564397485
2.08344172086043,1.0380435138792692
2.0971485742871434,1.0409054617369724
2.1108554277138567,1.0418724228180807
2.12456228114057,1.0423039759231498
2.1382691345672833,1.0399887144456048
2.1519759879939966,1.0374756045266953
2.1656828414207103,1.0317857662585577
2.1793896948474236,1.026110306820739
2.193096548274137,1.0182478315145367
2.20680340170085,1.0115313638365626
2.2205102551275635,1.0026839023540943
2.234217108554277,0.9947318751773523
2.24792396198099,0.9855674056595813
2.261630815407704,0.9770317334154673
2.275337668834417,0.9711243607889204
2.2890445222611304,0.9641791637449821
2.3027513756878437,0.9612416116441033
2.316458229114557,0.9572043401879642
2.3301650825412703,0.9565847623576424
2.3438719359679836,0.9564031346405248
2.3575787893946973,0.959928176386917
2.3712856428214106,0.9628507662834331
2.384992496248124,0.9680682475190338
2.3986993496748372,0.9748443658108455
2.4124062031015505,0.9824380001857559
2.426113056528264,0.9902473607992838
2.439819909954977,0.9990693822497358
2.4535267633816904,1.0068410449326395
2.467233616808404,1.0158242500470573
2.4809404702351174,1.0224148325776028
2.4946473236618307,1.0279045960532849
2.508354177088544,1.0345583728822176
2.5220610305152573,1.0374292056818148
2.5357678839419706,1.0411016692845234
2.549474737368684,1.0432337528701416
2.5631815907953976,1.040098688058663
2.576888444222111,1.0392077951972722
2.5905952976488242,1.0334259232809149
2.6043021510755375,1.0286418138758076
2.618009004502251,1.0230248483433604
2.631715857928964,1.01599534042213
2.6454227113556774,1.0070931493752755
2.659129564782391,0.9983285955366568
2.6728364182091044,0.9917622618348729
2.6865432716358177,0.98418654985423
2.700250125062531,0.9762412644894519
2.7139569784892443,0.9720385936630505
2.7276638319159576,0.9668993161100321
2.741370685342671,0.9647089021862439
2.755077538769384,0.9609583783919273
2.768784392196098,0.9615712048851384
2.7824912456228112,0.9627670870345476
2.7961980990495245,0.9647885843131271
2.809904952476238,0.9700759898767904
2.823611805902951,0.9749457753889339
2.8373186593296644,0.9810050377281636
2.8510255127563777,0.9883301896115285
2.8647323661830915,0.9952630840337693
2.8784392196098048,1.001288965370061
2.892146073036518,1.0090012711235192
2.9058529264632313,1.0141211007469833
2.9195597798899446,1.02067790943654
2.933266633316658,1.0253517555531027
2.9469734867433712,1.0297730405809034
2.960680340170085,1.031706085847702
2.9743871935967983,1.0333875903527379
2.9880940470235116,1.0319242885260884
3.001800900450225,1.0310033135812764
3.015507753876938,1.0291419429453865
3.0292146073036514,1.0245039136988616
3.0429214607303647,1.0197902538378842
3.056628314157078,1.0148818499594103
3.0703351675837918,1.009502611089488
3.084042021010505,1.0030285240847836
3.0977488744372184,0.9969349159221967
3.1114557278639317,0.9920204698905898
3.125162581290645,0.985723313783221
3.1388694347173582,0.981142142144319
3.1525762881440715,0.9777863985085353
3.1662831415707853,0.9756371776192468
3.1799899949974986,0.9746098129669163
3.193696848424212,0.9740233382345704
3.207403701850925,0.9747302348345424
3.2211105552776385,0.9755973047433838
3.2348174087043517,0.9782137589201073
3.248524262131065,0.9817655348957037
3.262231115557779,0.9844452814567819
3.275937968984492,0.9882601276942002
3.2896448224112054,0.9934834826274946
3.3033516758379187,0.9973425074200531
3.317058529264632,1.0017525909668967
3.3307653826913453,1.00642509765401
3.3444722361180586,1.009350083788355
3.358179089544772,1.0123848304671539
3.3718859429714856,1.0154731213944477
3.385592796398199,1.0173060881833997
3.399299649824912,1.01856062819345
3.4130065032516255,1.0181021073117529
3.4267133566783388,1.020073765297988
3.440420210105052,1.0165264998044858
3.4541270635317654,1.0150746468227576
3.467833916958479,1.013708670437897
3.4815407703851924,1.0099799209243567
3.4952476238119057,1.0073542866408043
3.508954477238619,1.004281587535615
3.5226613306653323,1.0017922615694277
3.5363681840920456,0.9988281779689618
3.550075037518759,0.9969191207175174
3.5637818909454726,0.9940750809945152
3.577488744372186,0.9924699854529
3.591195597798899,0.9913075146633891
3.6049024512256125,0.9902623078687364
3.6186093046523258,0.9901634354733259
3.632316158079039,0.9902352280026159
3.6460230115057524,0.9924322495151117
3.659729864932466,0.9918207833740917
3.6734367183591794,0.9931987344547057
3.6871435717858927,0.9941767941428327
3.700850425212606,0.9942034628541279
3.7145572786393193,0.9968166830422261
3.7282641320660326,0.9985178185449254
3.741970985492746,0.9988885582291751
3.755677838919459,1.0004101760162178
3.769384692346173,0.9991745463253751
3.783091545772886,1.0006813667609618
3.7967983991995995,1.0011264127146529
3.810505252626313,1.0011377967596757
3.824212106053026,1.0007167879041368
3.8379189594797394,1.0014809632979491
3.8516258129064527,1.000912494153114
3.8653326663331664,1.0002619080671973
3.8790395197598797,1.0005660231829838
3.892746373186593,0.9991747106763444
3.9064532266133063,1.000282323060527
3.9201600800400196,0.9994781237005939
3.933866933466733,1.0011290529528232
3.947573786893446,1.0017668577873813
3.96128064032016,1.0022126840110948
3.974987493746873,1.0022704621386755
3.9886943471735865,1.0041775996498459
4.0024012006003,1.0055524105786764
4.016108054027013,1.006136954471531
4.029814907453726,1.0073770992538769
4.04352176088044,1.0082212875240593
4.057228614307153,1.0089021430106349
4.070935467733866,1.0085228441863439
4.08464232116058,1.0079011440953287
4.098349174587293,1.0080072803325393
4.112056028014007,1.0080641328097604
4.12576288144072,1.006284975056004
4.139469734867434,1.0039123744843423
4.153176588294147,1.001843878250871
4.16688344172086,0.9993508735996685
4.1805902951475735,0.9977078622157869
4.194297148574287,0.993601753066221
4.208004002001,0.9907081385891686
4.221710855427713,0.9883444937584089
4.235417708854427,0.9861050632815711
4.24912456228114,0.9844153635251545
4.262831415707853,0.9843191362014813
4.276538269134567,0.9823108347602981
4.29024512256128,0.9830823270550902
4.303951975987993,0.9838514141155665
4.317658829414707,0.9847108078116689
4.331365682841421,0.9865037081813367
4.345072536268134,0.9896262390745454
4.358779389694847,0.992897252361474
4.3724862431215605,0.9970882557713956
4.386193096548274,1.0015836425866664
4.399899949974987,1.0043162880166485
4.4136068034017,1.009284695403148
4.427313656828414,1.013274610755907
4.441020510255127,1.0174008701045114
4.45472736368184,1.0206819358701875
4.468434217108554,1.0234722904375637
4.482141070535267,1.0249574613628796
4.49584792396198,1.0258558985553143
4.5095547773886935,1.0246677617393025
4.523261630815408,1.024064423989995
4.536968484242121,1.0213778148026127
4.550675337668834,1.0179091605285788
4.5643821910955475,1.013392528276787
4.578089044522261,1.0096410384345353
4.591795897948974,1.0032848075017233
4.605502751375687,0.9979221444625533
4.619209604802401,0.9927900508439418
4.632916458229114,0.9868624369998027
4.646623311655827,0.9810155996537534
4.660330165082541,0.9762756820442181
4.674037018509254,0.9726316787914854
4.687743871935967,0.9688982363099525
4.7014507253626805,0.968378417717966
4.715157578789395,0.9679375758150518
4.728864432216108,0.9695555140682501
4.742571285642821,0.9714104340138864
4.756278139069535,0.9742039644775105
4.769984992496248,0.9797365589918852
4.783691845922961,0.9840391114656334
4.7973986993496744,0.9900153939686136
4.811105552776388,0.9968042306306358
4.824812406203101,1.0039316029349155
4.838519259629814,1.0115727343046874
4.852226113056528,1.0176112906729786
4.865932966483241,1.0220826715076974
4.879639819909954,1.0291569346583864
4.8933466733366675,1.0325015414145116
4.907053526763381,1.0359649756561782
4.920760380190095,1.037919277238003
4.934467233616808,1.0379209785305843
4.948174087043522,1.0359974189613486
4.961880940470235,1.0323882898768562
4.975587793896948,1.0287964578624418
4.9892946473236615,1.0241570734821164
5.003001500750375,1.0182017106472065
5.016708354177088,1.01081474349204
5.030415207603801,1.00300185225419
5.044122061030515,0.994110651302962
5.057828914457228,0.9857713036270749
5.071535767883941,0.9795128325129834
5.0852426213106545,0.9731641224198154
5.098949474737368,0.9670385183589432
5.112656328164081,0.9630699610438838
5.126363181590795,0.9596386738758229
5.140070035017509,0.9588275625966709
5.153776888444222,0.9588176243038612
5.167483741870935,0.9614253803361452
5.1811905952976485,0.964478499189247
5.194897448724362,0.9695176108969078
5.208604302151075,0.9762531336058913
5.222311155577788,0.9832997312203137
5.236018009004502,0.991234954399483
5.249724862431215,0.999667751388105
5.263431715857928,1.0074170116019998
5.2771385692846415,1.0158458226997857
5.290845422711355,1.0223123207390734
5.304552276138068,1.0302383745936858
5.318259129564782,1.0354251635130158
5.331965982991496,1.0397611318630398
5.345672836418209,1.0414200818609403
5.359379689844922,1.042647266702239
5.3730865432716355,1.0415127800952197
5.386793396698349,1.039787873158701
5.400500250125062,1.0355400609612502
5.414207103551775,1.029872130548342
5.427913956978489,1.0230762178417818
5.441620810405202,1.0163588864200634
5.455327663831915,1.0075485719268846
5.4690345172586285,0.9996280310712432
5.482741370685342,0.9915556712225199
5.496448224112055,0.9827616425829158
5.510155077538768,0.9749614464810147
5.523861930965483,0.9692034347913028
5.537568784392196,0.9648191761105306
5.551275637818909,0.9597199876716723
5.5649824912456225,0.9578354388172684
5.578689344672336,0.956819607510652
5.592396198099049,0.9584742664743133
5.606103051525762,0.9625580715699426
5.619809904952476,0.9657978238735466
5.633516758379189,0.9714140214354445
5.647223611805902,0.9781720310125352
5.660930465232616,0.9841637123784971
5.674637318659329,0.993440885544626
5.688344172086042,1.0033331477357763
5.7020510255127554,1.010717325150183
5.71575787893947,1.0184356136314856
5.729464732366183,1.0252347635345254
5.743171585792896,1.0303757175768202
5.7568784392196095,1.0349469830331528
5.770585292646323,1.0396440785244443
5.784292146073036,1.040108548122767
5.797998999499749,1.0404071251506317
5.811705852926463,1.0380239729256655
5.825412706353176,1.0351195275714111
5.839119559779889,1.0318863080589826
5.852826413206603,1.0260347063076003
5.866533266633316,1.0180815636232858
5.880240120060029,1.0116127759109284
5.8939469734867425,1.004434657212009
5.907653826913456,0.9962461168171728
5.92136068034017,0.9886464537967268
5.935067533766883,0.9817591768074042
5.9487743871935965,0.9759231014974656
5.96248124062031,0.9701917396812816
5.976188094047023,0.9670637731593195
5.989894947473736,0.9649789684218051
6.00360180090045,0.9635344296556969
6.017308654327163,0.9628564415877215
6.031015507753876,0.9661480557722387
6.04472236118059,0.9685445774210298
6.058429214607303,0.9729041195924929
6.072136068034016,0.978386967321937
6.0858429214607295,0.984486962746179
6.099549774887443,0.9919592644095652
6.113256628314156,0.9974837790134193
6.12696348174087,1.0045487618053186
6.1406703351675835,1.0103278002928648
6.154377188594297,1.0170156191867308
6.16808404202101,1.0219767362449013
6.181790895447723,1.0254129905231701
6.195497748874437,1.0288453947734824
6.20920460230115,1.0316937989465262
6.222911455727863,1.0301087589684428
6.236618309154577,1.029415027069446
6.25032516258129,1.0287214369714506
6.264032016008003,1.0251574126763192
6.2777388694347165,1.021018101606368
6.29144572286143,1.0170000391246714
6.305152576288143,1.0121326590107047
6.318859429714857,1.0065486345552075
6.3325662831415706,1.0012611905866053
6.346273136568284,0.9951312764602679
6.359979989994997,0.988622721409461
6.37368684342171,0.9873480024566843
6.387393696848424,0.9816687397851994
6.401100550275137,0.978309138954619
6.41480740370185,0.9769357672182738
6.428514257128564,0.9759277561369051
6.442221110555277,0.9759426988048729
6.45592796398199,0.9765908158340679
6.4696348174087035,0.9793202505507688
6.483341670835417,0.9811257415720209
6.49704852426213,0.9844116798108506
6.510755377688843,0.9884602560859794
6.524462231115558,0.9924480950975364
6.538169084542271,0.9958739334126684
6.551875937968984,1.000538781661186
6.5655827913956974,1.0034878989762515
6.579289644822411,1.0060237336905549
6.592996498249124,1.0091940411930882
6.606703351675837,1.0121835439487699
6.620410205102551,1.0142947473271542
6.634117058529264,1.015426600154811
6.647823911955977,1.0154992220755694
6.6615307653826905,1.0150013502339745
6.675237618809404,1.0139145621448387
6.688944472236117,1.013815906456141
6.70265132566283,1.0123051891115675
6.716358179089544,1.0094652458436182
6.730065032516258,1.007355053041783
6.743771885942971,1.0048845937759987
6.7574787393696845,1.0028894705447011
6.771185592796398,0.9996293393162923
6.784892446223111,0.9983611925079546
6.798599299649824,0.9964930770267191
6.812306153076538,0.9948055324337995
6.826013006503251,0.9949112782077113
6.839719859929964,0.9937992978109551
6.8534267133566775,0.9935053603924004
6.867133566783391,0.9932271420932668
6.880840420210104,0.9923972571261711
6.894547273636817,0.9937415916908671
6.908254127063531,0.9950838826754237
6.921960980490245,0.995120236045361
6.935667833916958,0.9968788224539771
6.9493746873436715,0.9973552832484891
6.963081540770385,0.9973239864808836
6.976788394197098,0.9988354330049982
6.990495247623811,0.9988653623328279
7.004202101050525,0.9988079187556548
7.017908954477238,0.9991592007930657
7.031615807903951,0.999405198300187
7.0453226613306645,0.9979751179122905
7.059029514757378,0.9976095393857832
7.072736368184091,0.9975117167014932
7.086443221610804,0.9978360281021085
7.100150075037518,0.9975422991872691
7.113856928464231,0.9962874906928508
7.127563781890945,0.9978295068235608
7.1412706353176585,0.998254852668603
7.154977488744372,0.9991288390355874
7.168684342171085,0.9987857017645656
7.182391195597798,1.0002672285478487
7.196098049024512,1.0001690433399772
7.209804902451225,1.0022527042241276
7.223511755877938,1.0044327161396038
7.2372186093046516,1.0058015101153346
7.250925462731365,1.008301246326576
7.264632316158078,1.0093426968068322
7.278339169584791,1.0103924731724683
7.292046023011505,1.0110957425233236
7.305752876438218,1.0118303224143286
7.319459729864932,1.0111602809302833
7.3331665832916455,1.0120310054634474
7.346873436718359,1.0091766942093725
