time,flux
0.0,0.9366769268745422
0.013706853426713355,0.9422251116348398
0.02741370685342671,0.947150884713646
0.041120560280140064,0.9537882109157364
0.05482741370685342,0.9623142467986977
0.06853426713356678,0.9693191895567912
0.08224112056028013,0.9776392100042371
0.09594797398699349,0.9850971633044249
0.10965482741370684,0.9940227616449003
0.1233616808404202,1.002693627681239
0.13706853426713356,1.0101764413787535
0.1507753876938469,1.01817872518951
0.16448224112056026,1.0261083327249512
0.1781890945472736,1.0305084534275015
0.19189594797398699,1.0347624252727574
0.20560280140070034,1.0370213719506483
0.21930965482741369,1.0413837569308861
0.23301650825412704,1.0407444807106958
0.2467233616808404,1.0419355560303685
0.26043021510755376,1.03987418634605
0.2741370685342671,1.0378060849984583
0.28784392196098046,1.034883498149437
0.3015507753876938,1.0318140851996294
0.31525762881440716,1.0286645656567697
0.3289644822411205,1.0267315468376605
0.34267133566783387,1.0199531309000425
0.3563781890945472,1.0149031724643571
0.3700850425212606,1.0109227783186443
0.38379189594797397,1.0095451346487232
0.3974987493746873,1.0052049906296117
0.41120560280140067,1.0019845200700728
0.424912456228114,0.9993135516377905
0.43861930965482737,0.9993307795500735
0.4523261630815407,0.9985523083951953
0.46603301650825407,0.9998391535639447
0.4797398699349674,0.9995424133677873
0.4934467233616808,0.9978627061243642
0.5071535767883941,0.9996140215837822
0.5208604302151075,1.0015654415342277
0.5345672836418208,1.0002437549083665
0.5482741370685342,1.0013051462830227
0.5619809904952475,0.9998871422116168
0.5756878439219609,0.9973288698617895
0.5893946973486743,0.9957612323087003
0.6031015507753876,0.9972698616653213
0.616808404202101,0.9948716695277511
0.6305152576288143,0.991859394426732
0.6442221110555277,0.9904949480390938
0.657928964482241,0.9872902490204247
0.6716358179089544,0.9842225102326122
0.6853426713356677,0.9806982707925371
0.6990495247623811,0.9751092732441347
0.7127563781890944,0.9747338043219341
0.7264632316158078,0.9715189997220431
0.7401700850425212,0.9690903330266765
0.7538769384692345,0.968934210092995
0.7675837918959479,0.9690320378772587
0.7812906453226612,0.969037067209398
0.7949974987493746,0.9710849003069255
0.8087043521760879,0.9734072568900859
0.8224112056028013,0.9759768525375596
0.8361180590295146,0.9811735538199918
0.849824912456228,0.9877964706918658
0.8635317658829413,0.9934213439386643
0.8772386193096547,1.0007789914557568
0.8909454727363681,1.0045753487318934
0.9046523261630814,1.013448356542496
0.9183591795897948,1.0171951367734904
0.9320660330165081,1.0234357439672712
0.9457728864432215,1.0274468332119726
0.9594797398699348,1.0329338485234387
0.9731865932966483,1.0368417885244112
0.9868934467233615,1.0345619869066551
1.000600300150075,1.0360918324559483
1.0143071535767882,1.0379453485732584
1.0280140070035018,1.035605213660238
1.041720860430215,1.0325979501852305
1.0554277138569284,1.0258036183052683
1.0691345672836416,1.0218985550397406
1.0828414207103552,1.0165880701395826
1.0965482741370685,1.009687391076511
1.1102551275637818,1.003111856067172
1.123961980990495,0.9969209124769534
1.1376688344172086,0.9897307005359061
1.1513756878439219,0.9829322390276617
1.1650825412706352,0.9772785547153712
1.1787893946973487,0.9728668657739605
1.192496248124062,0.9714075714906839
1.2062031015507753,0.9663641585713459
1.2199099549774886,0.9661676984984697
1.233616808404202,0.9650581175879205
1.2473236618309154,0.966797427022824
1.2610305152576287,0.9661493447983942
1.274737368684342,0.970264681318958
1.2884442221110555,0.9748952943327729
1.3021510755377688,0.9832990377571312
1.315857928964482,0.9903684395095108
1.3295647823911956,0.9968737321616439
1.3432716358179089,0.999257331782447
1.3569784892446222,1.0079432970373639
1.3706853426713355,1.0151712959713035
1.384392196098049,1.0229006115346497
1.3980990495247623,1.029358265985548
1.4118059029514756,1.0347344164036745
1.4255127563781889,1.0362632520309318
1.4392196098049024,1.0372284437993422
1.4529264632316157,1.0395840438675765
1.466633316658329,1.0395182899589142
1.4803401700850425,1.0370577056809451
1.4940470235117558,1.0355687257635078
1.507753876938469,1.0318846655577854
1.5214607303651824,1.0290133777793795
1.5351675837918959,1.0251198336486063
1.5488744372186092,1.0173899030562337
1.5625812906453225,1.008271149687929
1.5762881440720358,1.0048010492796031
1.5899949974987493,1.0006129382473623
1.6037018509254626,0.9920227997490587
1.6174087043521759,0.9877831260212426
1.6311155577788894,0.9795374522298302
1.6448224112056027,0.9774502682197497
1.658529264632316,0.9743776084460963
1.6722361180590293,0.974483720421649
1.6859429714857428,0.9695371492901873
1.699649824912456,0.9698037684406833
1.7133566783391694,0.969112868308796
1.7270635317658827,0.9708761322983641
1.7407703851925962,0.9745331310084981
1.7544772386193095,0.9767129628972632
1.7681840920460228,0.980901799565373
1.7818909454727363,0.9783938763071539
1.7955977988994496,0.9819559595585003
1.8093046523261629,0.9845746060794806
1.8230115057528762,0.9887597208781082
1.8367183591795897,0.9893247694661739
1.850425212606303,0.994265448841396
1.8641320660330163,0.9937904016888531
1.8778389194597296,0.9939891107656994
1.891545772886443,0.994243905759914
1.9052526263131564,0.9920165541096014
1.9189594797398697,0.9948440320466162
1.9326663331665832,0.9956321112221105
1.9463731865932965,0.9942459369007834
1.9600800400200098,0.9940537698818502
1.973786893446723,0.9932814462074575
1.9874937468734366,0.9955755757564967
2.00120060030015,0.996222700141181
2.014907453726863,0.9932819099083283
2.0286143071535765,0.9966426638354386
2.04232116058029,1.00009831851917
2.0560280140070035,1.0025446078267306
2.069734867433717,1.002813332351085
2.08344172086043,1.0083152283047627
2.0971485742871434,1.0120097194197728
2.1108554277138567,1.0183025925911435
2.12456228114057,1.0226570752836142
2.1382691345672833,1.027293122797122
2.1519759879939966,1.033339509477715
2.1656828414207103,1.0371954829057426
2.1793896948474236,1.0427173106471015
2.193096548274137,1.0453381685740093
2.20680340170085,1.0465218376458236
2.2205102551275635,1.048421817289362
2.234217108554277,1.0463868840072565
2.24792396198099,1.0442175434641314
2.261630815407704,1.0447356069047709
2.275337668834417,1.0394903171077876
2.2890445222611304,1.0340653208115782
2.3027513756878437,1.0279446952525566
2.316458229114557,1.0191223388987665
2.3301650825412703,1.0109486366865987
2.3438719359679836,1.0033817901160615
2.3575787893946973,0.9934172414025693
2.3712856428214106,0.9830360469921745
2.384992496248124,0.9780320958685814
2.3986993496748372,0.9661749828163108
2.4124062031015505,0.961338563443114
2.426113056528264,0.9540828743780264
2.439819909954977,0.9488715113284236
2.4535267633816904,0.943954489145084
2.467233616808404,0.9417239894080478
2.4809404702351174,0.9407453820453541
2.4946473236618307,0.9386918408930413
2.508354177088544,0.9404201943289742
2.5220610305152573,0.9470714314150356
2.5357678839419706,0.9522232821040069
2.549474737368684,0.9559691780656506
2.5631815907953976,0.9662771379432376
2.576888444222111,0.9693362071195272
2.5905952976488242,0.9796124070151118
2.6043021510755375,0.9907514656655987
2.618009004502251,0.9971423117509135
2.631715857928964,1.0041241488036516
2.6454227113556774,1.0123093168477737
2.659129564782391,1.021323450833362
2.6728364182091044,1.0262180964931646
2.6865432716358177,1.030402799204574
2.700250125062531,1.0375064654404305
2.7139569784892443,1.0375702888985272
2.7276638319159576,1.0368116316042109
2.741370685342671,1.038774445326546
2.755077538769384,1.0380321216772195
2.768784392196098,1.0371376241705617
2.7824912456228112,1.0310694614746099
2.7961980990495245,1.027079976070373
2.809904952476238,1.0239234154939252
2.823611805902951,1.0205957541428552
2.8373186593296644,1.0156144471850705
2.8510255127563777,1.011239747774551
2.8647323661830915,1.0043624704383105
2.8784392196098048,0.9992366175596683
2.892146073036518,0.999933684862228
2.9058529264632313,0.9969166485476628
2.9195597798899446,0.9916182051159212
2.933266633316658,0.990453270285689
2.9469734867433712,0.9909133131005994
2.960680340170085,0.9925167711646211
2.9743871935967983,0.9930802308847553
2.9880940470235116,0.9936258206651633
3.001800900450225,0.9960786424503542
3.015507753876938,0.9991721383925116
3.0292146073036514,0.9967125505827297
3.0429214607303647,0.9997091167583713
3.056628314157078,1.0005945710864874
3.0703351675837918,1.0053404423193786
3.084042021010505,1.0042494220911222
3.0977488744372184,1.0061470248982058
3.1114557278639317,1.0058511855451528
3.125162581290645,1.007344539305591
3.1388694347173582,1.0025535717288097
3.1525762881440715,1.003192860406598
3.1662831415707853,0.9993775066093338
3.1799899949974986,0.9976730646121686
3.193696848424212,0.9959935417722767
3.207403701850925,0.9945548077667461
3.2211105552776385,0.9909765808661988
3.2348174087043517,0.9884012956518001
3.248524262131065,0.9864696299689923
3.262231115557779,0.9867799814844535
3.275937968984492,0.9820428250130229
3.2896448224112054,0.9817676706591814
3.3033516758379187,0.9861279224499515
3.317058529264632,0.9859021164285998
3.3307653826913453,0.9871073209197795
3.3444722361180586,0.9926276116974245
3.358179089544772,0.9948130595235544
3.3718859429714856,0.9965929163057042
3.385592796398199,1.0002720452275082
3.399299649824912,1.0078087380180267
3.4130065032516255,1.0101053096365178
3.4267133566783388,1.010975278763152
3.440420210105052,1.016416282116527
3.4541270635317654,1.0189849121119536
3.467833916958479,1.0207434963724746
3.4815407703851924,1.0229110149592986
3.4952476238119057,1.0238410826935715
3.508954477238619,1.0267139676333172
3.5226613306653323,1.019386479045445
3.5363681840920456,1.0170636425364616
3.550075037518759,1.0117774897200242
3.5637818909454726,1.008004094764608
3.577488744372186,1.0034584539328322
3.591195597798899,0.9994792534378528
3.6049024512256125,0.9938606825778991
3.6186093046523258,0.987416693734288
3.632316158079039,0.978437378342189
3.6460230115057524,0.9739465911840454
3.659729864932466,0.971351581470013
3.6734367183591794,0.9648660938189461
3.6871435717858927,0.9606686992807661
3.700850425212606,0.9609341645586609
3.7145572786393193,0.9596177807120687
3.7282641320660326,0.9625861782727341
3.741970985492746,0.9623124111702577
3.755677838919459,0.9646756169087636
3.769384692346173,0.9693833134611352
3.783091545772886,0.9771270114361515
3.7967983991995995,0.9795297239795913
3.810505252626313,0.9921508793894601
3.824212106053026,0.9983480725643956
3.8379189594797394,1.0062656419205116
3.8516258129064527,1.0143825654284888
3.8653326663331664,1.0206956008729544
3.8790395197598797,1.028903743708245
3.892746373186593,1.0373124469047745
3.9064532266133063,1.04470012232792
3.9201600800400196,1.0451677673133093
3.933866933466733,1.052617353205892
3.947573786893446,1.0548515859864187
3.96128064032016,1.0548780767140444
3.974987493746873,1.0528190803127349
3.9886943471735865,1.0506002062767164
4.0024012006003,1.0462805256192789
4.016108054027013,1.0410359781122498
4.029814907453726,1.0357798290039018
4.04352176088044,1.0337070342703032
4.057228614307153,1.023062056768629
4.070935467733866,1.015190825043429
4.08464232116058,1.0060849430132535
4.098349174587293,0.9991438529872576
4.112056028014007,0.9896930958923157
4.12576288144072,0.9856026614004184
4.139469734867434,0.9785612164698391
4.153176588294147,0.973918953431643
4.16688344172086,0.9699104188899973
4.1805902951475735,0.967543303292404
4.194297148574287,0.9608920960464808
4.208004002001,0.9646480460356298
4.221710855427713,0.9599407100779404
4.235417708854427,0.9638092101267444
4.24912456228114,0.9632122274548752
4.262831415707853,0.964577902019642
4.276538269134567,0.9687362966017616
4.29024512256128,0.9714045308199128
4.303951975987993,0.972401167981837
4.317658829414707,0.9791862175083121
4.331365682841421,0.9788258954592727
4.345072536268134,0.9848854864258911
4.358779389694847,0.9904914747181985
4.3724862431215605,0.9890606786334695
4.386193096548274,0.9900158146090579
4.399899949974987,0.9911575384348553
4.4136068034017,0.9942073789610739
4.427313656828414,0.9950952951323501
4.441020510255127,0.996094831660419
4.45472736368184,0.995189633476836
4.468434217108554,0.9961590967791825
4.482141070535267,0.9955700199079057
4.49584792396198,0.9972640455914835
4.5095547773886935,0.9955438871267656
4.523261630815408,0.9968230045347244
4.536968484242121,0.9958811146008056
4.550675337668834,1.0022274964528428
4.5643821910955475,0.9999178211272516
4.578089044522261,1.0065001459284757
4.591795897948974,1.0089488655996783
4.605502751375687,1.0140769656739925
4.619209604802401,1.0178511239765444
4.632916458229114,1.0234562987449585
4.646623311655827,1.026028235336882
4.660330165082541,1.033180684692095
4.674037018509254,1.0357642102178344
4.687743871935967,1.0387291635752145
4.7014507253626805,1.0403658069268302
4.715157578789395,1.0422092266934377
4.728864432216108,1.0432218165709093
4.742571285642821,1.0455540756846002
4.756278139069535,1.0424910848446673
4.769984992496248,1.0391578237704655
4.783691845922961,1.0363391448044774
4.7973986993496744,1.0310032707964545
4.811105552776388,1.0231510897334324
4.824812406203101,1.017363082468578
4.838519259629814,1.013411844954957
4.852226113056528,1.001383401128139
4.865932966483241,0.9968175642559567
4.879639819909954,0.987257689658844
4.8933466733366675,0.9803739165401515
4.907053526763381,0.9722760666473232
4.920760380190095,0.9630261687269409
4.934467233616808,0.9588813556653619
4.948174087043522,0.9541623227856217
4.961880940470235,0.9522622853320033
4.975587793896948,0.9500993841559753
4.9892946473236615,0.9495191529047227
5.003001500750375,0.9482218641003131
5.016708354177088,0.9525865944330072
5.030415207603801,0.9558577623662446
5.044122061030515,0.961147203877897
5.057828914457228,0.9667549464715883
5.071535767883941,0.9701154752001228
5.0852426213106545,0.9799040727761846
5.098949474737368,0.9888431054763525
5.112656328164081,0.9946096276879899
5.126363181590795,1.0049793489563243
5.140070035017509,1.0135333810816225
5.153776888444222,1.0183711791988082
5.167483741870935,1.022895302088111
5.1811905952976485,1.029456673491474
5.194897448724362,1.0304560185195093
5.208604302151075,1.0351679603080253
5.222311155577788,1.0369515042289073
5.236018009004502,1.036460033355784
5.249724862431215,1.0354965726986607
5.263431715857928,1.0319515136477384
5.2771385692846415,1.0279438993315575
5.290845422711355,1.0217618201450047
5.304552276138068,1.0189413940259768
5.318259129564782,1.0130127587134723
5.331965982991496,1.0071214395420678
5.345672836418209,1.0004298134698701
5.359379689844922,0.9959721984202572
5.3730865432716355,0.9930197841770915
5.386793396698349,0.9876381549491083
5.400500250125062,0.9811600298713804
5.414207103551775,0.9808888847628602
5.427913956978489,0.9764359348448812
5.441620810405202,0.9777574052254974
5.455327663831915,0.9771420909951123
5.4690345172586285,0.9789954538191424
5.482741370685342,0.9809220157747708
5.496448224112055,0.9836112997805626
5.510155077538768,0.987083616873727
5.523861930965483,0.9892312092103611
5.537568784392196,0.9947877578147583
5.551275637818909,0.9993147834215685
5.5649824912456225,1.0012652624537643
5.578689344672336,1.006709905116511
5.592396198099049,1.0076677041953286
5.606103051525762,1.01463391375194
5.619809904952476,1.014481179561108
5.633516758379189,1.0176637761096317
5.647223611805902,1.0159318286065695
5.660930465232616,1.015941370329438
5.674637318659329,1.0149721819224362
5.688344172086042,1.014934918347893
5.7020510255127554,1.013086371762183
5.71575787893947,1.012569547045416
5.729464732366183,1.0105974798479223
5.743171585792896,1.0057326837991447
5.7568784392196095,1.0038995867845812
5.770585292646323,1.001020922436751
5.784292146073036,0.9995499906718707
5.797998999499749,0.9967790303500562
5.811705852926463,0.9972124496251387
5.825412706353176,0.9965656077913133
5.839119559779889,0.9970936416084424
5.852826413206603,0.9995533928169166
5.866533266633316,1.0003934625867263
5.880240120060029,1.0032735464799503
5.8939469734867425,1.0045491304679566
5.907653826913456,1.0062122506409905
5.92136068034017,1.006795730125317
5.935067533766883,1.0093176417558407
5.9487743871935965,1.011850834127087
5.96248124062031,1.0118015948157622
5.976188094047023,1.012347532747022
5.989894947473736,1.0139143659974548
6.00360180090045,1.011754371301502
6.017308654327163,1.012404549538461
6.031015507753876,1.0082019886360152
6.04472236118059,1.006134660975046
6.058429214607303,0.9995663419803441
6.072136068034016,0.9971268494507171
6.0858429214607295,0.9885116487522935
6.099549774887443,0.9857742291549144
6.113256628314156,0.9757150893052767
6.12696348174087,0.9742116996947006
6.1406703351675835,0.9682344411378838
6.154377188594297,0.9629302499777956
6.16808404202101,0.9590396000301157
6.181790895447723,0.9569596488935456
6.195497748874437,0.9539380776711952
6.20920460230115,0.952613640383985
6.222911455727863,0.9527491508463257
6.236618309154577,0.9549029660475523
6.25032516258129,0.9587123437717968
6.264032016008003,0.9629589630973665
6.2777388694347165,0.968821125748075
6.29144572286143,0.9776156130284224
6.305152576288143,0.9836846023116952
6.318859429714857,0.9938134893095971
6.3325662831415706,1.0018628308362012
6.346273136568284,1.010307568728326
6.359979989994997,1.0194942699649414
6.37368684342171,1.0285886618713058
6.387393696848424,1.037901403531203
6.401100550275137,1.0433178246704289
6.41480740370185,1.0516349142377241
6.428514257128564,1.0539136306608408
6.442221110555277,1.0597699875847573
6.45592796398199,1.0591870030162658
6.4696348174087035,1.0609314783393833
6.483341670835417,1.0573356181254512
6.49704852426213,1.0598385438540103
6.510755377688843,1.0533466458519885
6.524462231115558,1.0473158856997664
6.538169084542271,1.0418712423075704
6.551875937968984,1.0321436120744736
6.5655827913956974,1.0253331760022417
6.579289644822411,1.015315922733683
6.592996498249124,1.0073533295928947
6.606703351675837,1.0006941732156143
6.620410205102551,0.9912430916852436
6.634117058529264,0.9852148596550253
6.647823911955977,0.9795470039109816
6.6615307653826905,0.9733539166726258
6.675237618809404,0.9685179964410219
6.688944472236117,0.9640602247623384
6.70265132566283,0.9615946425307538
6.716358179089544,0.9609899133729951
6.730065032516258,0.9583380439159414
6.743771885942971,0.9617022321159184
6.7574787393696845,0.9618367238497683
6.771185592796398,0.9676850031952342
6.784892446223111,0.9670962333173045
6.798599299649824,0.9709147893161563
6.812306153076538,0.977575559301923
6.826013006503251,0.9801733043528319
6.839719859929964,0.9834300779041603
6.8534267133566775,0.9863310206763847
6.867133566783391,0.9907699945300031
6.880840420210104,0.9916685339884519
6.894547273636817,0.9943604366745064
6.908254127063531,0.9962608350463351
6.921960980490245,0.9978912088808363
6.935667833916958,0.9992958769906463
6.9493746873436715,0.9977575640993885
6.963081540770385,0.9975245468468045
6.976788394197098,0.9974163005981632
6.990495247623811,0.9974236476947258
7.004202101050525,0.9989501667306498
7.017908954477238,0.9965307752715287
7.031615807903951,0.9979756740882783
7.0453226613306645,0.9984145839603997
7.059029514757378,0.9968845372914895
7.072736368184091,1.0003345308529465
7.086443221610804,1.0022388681238528
7.100150075037518,1.0056855910204756
7.113856928464231,1.0054258847594477
7.127563781890945,1.0080938537978181
7.1412706353176585,1.0104262136477742
7.154977488744372,1.016295335815357
7.168684342171085,1.0209932721095096
7.182391195597798,1.0244642834436521
7.196098049024512,1.0240215109929796
7.209804902451225,1.0306619832066903
7.223511755877938,1.0314838687648948
7.2372186093046516,1.032790626185635
7.250925462731365,1.030966167736317
7.264632316158078,1.0310425083308592
7.278339169584791,1.0293752141093375
7.292046023011505,1.027241215547665
7.305752876438218,1.0224913272597276
7.319459729864932,1.0185769251029155
7.3331665832916455,1.0152071771281415
7.346873436718359,1.0082935009815304
