time,flux
0.0,1.0167556531106619
0.013706853426713355,1.0140538849015357
0.02741370685342671,1.0117639277904815
0.041120560280140064,1.0076811424002532
0.05482741370685342,1.0041524167474478
0.06853426713356678,1.0006786334035207
0.08224112056028013,0.998109553182949
0.09594797398699349,0.994362778010579
0.10965482741370684,0.9921649813172606
0.1233616808404202,0.9906364084311974
0.13706853426713356,0.9898098700000593
0.1507753876938469,0.9887798830597023
0.16448224112056026,0.9899944571687224
0.1781890945472736,0.991109933453024
0.19189594797398699,0.9938555188426009
0.20560280140070034,0.9960375003024485
0.21930965482741369,0.9975827266562797
0.23301650825412704,1.000368791462839
0.2467233616808404,1.003766687517037
0.26043021510755376,1.0066141035060565
0.2741370685342671,1.0086230900470847
0.28784392196098046,1.0104035425423428
0.3015507753876938,1.0120127596777
0.31525762881440716,1.0132900421197129
0.3289644822411205,1.013189604176137
0.34267133566783387,1.0120693230532585
0.3563781890945472,1.0108231676507733
0.3700850425212606,1.0089545977994014
0.38379189594797397,1.0049707128781695
0.3974987493746873,1.0019151050663082
0.41120560280140067,0.9982036058511841
0.424912456228114,0.9935508602952204
0.43861930965482737,0.9901825080929967
0.4523261630815407,0.9875127337550885
0.46603301650825407,0.9823599472971778
0.4797398699349674,0.9796768971650692
0.4934467233616808,0.9788764314503325
0.5071535767883941,0.9775402204233734
0.5208604302151075,0.9767410244397108
0.5345672836418208,0.9786842985212405
0.5482741370685342,0.98024483527759
0.5619809904952475,0.9812857932743346
0.5756878439219609,0.9856899683311048
0.5893946973486743,0.9892693112069447
0.6031015507753876,0.9945458335810129
0.616808404202101,1.000972808146019
0.6305152576288143,1.0063926340660097
0.6442221110555277,1.0103757399949576
0.657928964482241,1.0160095971923173
0.6716358179089544,1.0201318888935171
0.6853426713356677,1.0246388768224637
0.6990495247623811,1.027245151260663
0.7127563781890944,1.0293161663475499
0.7264632316158078,1.0293704059216062
0.7401700850425212,1.0288274061819151
0.7538769384692345,1.0275098782961478
0.7675837918959479,1.0246155177699876
0.7812906453226612,1.023311365088697
0.7949974987493746,1.017552162008264
0.8087043521760879,1.0128122744390589
0.8224112056028013,1.0070014715001718
0.8361180590295146,1.0006135140056163
0.849824912456228,0.9952325518372533
0.8635317658829413,0.9904191413933007
0.8772386193096547,0.985435855831798
0.8909454727363681,0.9804953652072518
0.9046523261630814,0.9769083150511387
0.9183591795897948,0.9742662071363387
0.9320660330165081,0.973451591248346
0.9457728864432215,0.9730573727302367
0.9594797398699348,0.9738360174447896
0.9731865932966483,0.9747695627326974
0.9868934467233615,0.9778160919866304
1.000600300150075,0.9825655604084748
1.0143071535767882,0.9851048388457899
1.0280140070035018,0.9898180866971308
1.041720860430215,0.9949323367400907
1.0554277138569284,0.9987422135156793
1.0691345672836416,1.0040660347265897
1.0828414207103552,1.00825499099559
1.0965482741370685,1.0106829665600705
1.1102551275637818,1.0149099339763819
1.123961980990495,1.0164905213608137
1.1376688344172086,1.0169119701120528
1.1513756878439219,1.0173744899996335
1.1650825412706352,1.016255808281648
1.1787893946973487,1.0156968637006343
1.192496248124062,1.0141593735770116
1.2062031015507753,1.0109414690252245
1.2199099549774886,1.0073086869325238
1.233616808404202,1.0046981722929673
1.2473236618309154,1.0016224026449407
1.2610305152576287,0.9981593791282168
1.274737368684342,0.9954740373618521
1.2884442221110555,0.9941113879967307
1.3021510755377688,0.9906838337107443
1.315857928964482,0.9893772604611387
1.3295647823911956,0.9902416512644185
1.3432716358179089,0.9892501698662711
1.3569784892446222,0.9911948759640078
1.3706853426713355,0.9934688143913298
1.384392196098049,0.9950424893612286
1.3980990495247623,0.9982641154782225
1.4118059029514756,1.0013565916001634
1.4255127563781889,1.0036621121022957
1.4392196098049024,1.0070508368794315
1.4529264632316157,1.0094921569168513
1.466633316658329,1.0130547807680275
1.4803401700850425,1.0133232012601339
1.4940470235117558,1.0149609913611826
1.507753876938469,1.0142339619677863
1.5214607303651824,1.0136542454068718
1.5351675837918959,1.012142926246476
1.5488744372186092,1.010198171884988
1.5625812906453225,1.0073383043785409
1.5762881440720358,1.0054657736406418
1.5899949974987493,1.000093653394099
1.6037018509254626,0.9953316755320138
1.6174087043521759,0.9927631115078073
1.6311155577788894,0.9869061758043608
1.6448224112056027,0.9832606314757373
1.658529264632316,0.9798600133676773
1.6722361180590293,0.9771049146921628
1.6859429714857428,0.9753804396659064
1.699649824912456,0.9756057209514405
1.7133566783391694,0.9757060160212035
1.7270635317658827,0.9760456196861448
1.7407703851925962,0.9788079009682282
1.7544772386193095,0.9826667679402924
1.7681840920460228,0.9867378772359798
1.7818909454727363,0.9901584825333545
1.7955977988994496,0.9954765637673518
1.8093046523261629,1.0010342457648045
1.8230115057528762,1.0074271911662591
1.8367183591795897,1.0125162798408793
1.850425212606303,1.0178521724713012
1.8641320660330163,1.0215044337394845
1.8778389194597296,1.0258202005325092
1.891545772886443,1.0271590783880953
1.9052526263131564,1.0297825613366203
1.9189594797398697,1.0290051280443004
1.9326663331665832,1.030026477401051
1.9463731865932965,1.0268234893308887
1.9600800400200098,1.0243567130546873
1.973786893446723,1.0212653144579846
1.9874937468734366,1.0160860180319815
2.00120060030015,1.0117707216922573
2.014907453726863,1.0048554533623686
2.0286143071535765,0.9996313402974006
2.04232116058029,0.9946809396252799
2.0560280140070035,0.9883130706111607
2.069734867433717,0.9840894402898017
2.08344172086043,0.9801463720902562
2.0971485742871434,0.976583612517849
2.1108554277138567,0.9752243202336782
2.12456228114057,0.9751158374137046
2.1382691345672833,0.9728159556485536
2.1519759879939966,0.9757282082063349
2.1656828414207103,0.9770639889427647
2.1793896948474236,0.9796250989388772
2.193096548274137,0.9841780907093207
2.20680340170085,0.9889831691627063
2.2205102551275635,0.9922250392523654
2.234217108554277,0.9984064942090274
2.24792396198099,1.0017351447106457
2.261630815407704,1.0055255727149548
2.275337668834417,1.0098438207947253
2.2890445222611304,1.0119744041520113
2.3027513756878437,1.0125512499322173
2.316458229114557,1.0151738110004578
2.3301650825412703,1.0162608016274282
2.3438719359679836,1.014885516644656
2.3575787893946973,1.013777948887864
2.3712856428214106,1.013157935530073
2.384992496248124,1.0111192030810543
2.3986993496748372,1.0060296472855512
2.4124062031015505,1.0035246746313655
2.426113056528264,1.00179055311446
2.439819909954977,0.9987822240535295
2.4535267633816904,0.9950046182255062
2.467233616808404,0.9934937392145602
2.4809404702351174,0.9923932055990483
2.4946473236618307,0.9895197913657413
2.508354177088544,0.989730740336701
2.5220610305152573,0.9892212211871935
2.5357678839419706,0.9913340916365672
2.549474737368684,0.992735859966103
2.5631815907953976,0.9959421139855141
2.576888444222111,0.9985269435353201
2.5905952976488242,1.0015169570705753
2.6043021510755375,1.0039850891903301
2.618009004502251,1.0072263412123683
2.631715857928964,1.0103195199793351
2.6454227113556774,1.0139530417581912
2.659129564782391,1.0144113690626158
2.6728364182091044,1.0157506157848033
2.6865432716358177,1.0153692542952306
2.700250125062531,1.016222530694298
2.7139569784892443,1.015361410208494
2.7276638319159576,1.0136213836366146
2.741370685342671,1.009668468100505
2.755077538769384,1.0061489425352974
2.768784392196098,1.0023829407490357
2.7824912456228112,0.9985356334969503
2.7961980990495245,0.9931213134890683
2.809904952476238,0.9906390035034389
2.823611805902951,0.9852007107336738
2.8373186593296644,0.9804674974127281
2.8510255127563777,0.9780857591461464
2.8647323661830915,0.9748645270164975
2.8784392196098048,0.9734916775439335
2.892146073036518,0.9738791484419637
2.9058529264632313,0.9741530484169254
2.9195597798899446,0.9757522043757064
2.933266633316658,0.9785942557076251
2.9469734867433712,0.9820671550175838
2.960680340170085,0.9866051530683022
2.9743871935967983,0.9908330897051425
2.9880940470235116,0.9973914301309588
3.001800900450225,1.0029477323463079
3.015507753876938,1.0088552757794378
3.0292146073036514,1.0139867260881803
3.0429214607303647,1.0182328509632876
3.056628314157078,1.0226494299962856
3.0703351675837918,1.027300472567876
3.084042021010505,1.028728066450643
3.0977488744372184,1.0279451535636053
3.1114557278639317,1.029544822700196
3.125162581290645,1.0284036397343421
3.1388694347173582,1.0265100419162247
3.1525762881440715,1.0221685608386741
3.1662831415707853,1.0187335620046103
3.1799899949974986,1.0137879513074186
3.193696848424212,1.0082574011983223
3.207403701850925,1.0043601941011457
3.2211105552776385,0.9980737213434162
3.2348174087043517,0.993273302280208
3.248524262131065,0.9882342647354694
3.262231115557779,0.9836368054605352
3.275937968984492,0.9811939602642356
3.2896448224112054,0.9776832901139458
3.3033516758379187,0.9769512509401714
3.317058529264632,0.9758933382415907
3.3307653826913453,0.9762368422147534
3.3444722361180586,0.9777274804847079
3.358179089544772,0.9800206326477604
3.3718859429714856,0.9825498471726793
3.385592796398199,0.9864435060223344
3.399299649824912,0.990667672931921
3.4130065032516255,0.9956662090295244
3.4267133566783388,0.9992430414344667
3.440420210105052,1.003343622964559
3.4541270635317654,1.0071109889293932
3.467833916958479,1.008296587297863
3.4815407703851924,1.0114489818323098
3.4952476238119057,1.0138632971518202
3.508954477238619,1.014658354495424
3.5226613306653323,1.0136609710065005
3.5363681840920456,1.0134372394242814
3.550075037518759,1.012275628265096
3.5637818909454726,1.0097524470575294
3.577488744372186,1.0074669390382485
3.591195597798899,1.0037801707437592
3.6049024512256125,1.001306839443897
3.6186093046523258,0.9980929810285135
3.632316158079039,0.9949896363167217
3.6460230115057524,0.992562796931773
3.659729864932466,0.9906650921585508
3.6734367183591794,0.9907653811606588
3.6871435717858927,0.9892860403114937
3.700850425212606,0.989945817264501
3.7145572786393193,0.9918778225088439
3.7282641320660326,0.9927030509356052
3.741970985492746,0.9938089140032021
3.755677838919459,0.9973497328575865
3.769384692346173,1.000495577816829
3.783091545772886,1.004851339252723
3.7967983991995995,1.0075779730144894
3.810505252626313,1.0106958173602207
3.824212106053026,1.0140937609248104
3.8379189594797394,1.0164416691300862
3.8516258129064527,1.018262789456068
3.8653326663331664,1.0185498915373339
3.8790395197598797,1.0166699781328556
3.892746373186593,1.0174799398794712
3.9064532266133063,1.0155435875498455
3.9201600800400196,1.012293799315373
3.933866933466733,1.0085533996525833
3.947573786893446,1.0052781263966795
3.96128064032016,0.9999909578587621
3.974987493746873,0.996793105487356
3.9886943471735865,0.9915976528106983
4.0024012006003,0.9866968943062319
4.016108054027013,0.9821557219739191
4.029814907453726,0.9788670860450857
4.04352176088044,0.9760524397420628
4.057228614307153,0.9735065218522925
4.070935467733866,0.9716149245915198
4.08464232116058,0.9731886147371391
4.098349174587293,0.9747348630090825
4.112056028014007,0.9764441653986604
4.12576288144072,0.9787777036825664
4.139469734867434,0.9831494294710486
4.153176588294147,0.9879610169695415
4.16688344172086,0.9929586692371708
4.1805902951475735,0.9978276269358972
4.194297148574287,1.0051630689767428
4.208004002001,1.00991229018649
4.221710855427713,1.0149629198746217
4.235417708854427,1.020071076222248
4.24912456228114,1.024454193252191
4.262831415707853,1.0262775939849467
4.276538269134567,1.0276844631401791
4.29024512256128,1.029612482915267
4.303951975987993,1.0302126088906647
4.317658829414707,1.0276023390290867
4.331365682841421,1.0246799942065437
4.345072536268134,1.021406953140032
4.358779389694847,1.0163254935366834
4.3724862431215605,1.0121476966587784
4.386193096548274,1.0075102084780785
4.399899949974987,1.002256327400507
4.4136068034017,0.9966344257319928
4.427313656828414,0.9914016667243013
4.441020510255127,0.9875332965120066
4.45472736368184,0.9834864649697973
4.468434217108554,0.9819683964723681
4.482141070535267,0.9797385157290625
4.49584792396198,0.9788660596071279
4.5095547773886935,0.9777168741574409
4.523261630815408,0.9793701952520506
4.536968484242121,0.9805927287740367
4.550675337668834,0.9829375308009041
4.5643821910955475,0.9860503401104612
4.578089044522261,0.9888210667232573
4.591795897948974,0.9923564352956573
4.605502751375687,0.996387224364243
4.619209604802401,1.0011331418457778
4.632916458229114,1.0041552613901745
4.646623311655827,1.006729095004478
4.660330165082541,1.0107583051037983
4.674037018509254,1.0102365292750475
4.687743871935967,1.0121623349522264
4.7014507253626805,1.0112650887185237
4.715157578789395,1.0111391603213815
4.728864432216108,1.010660448816909
4.742571285642821,1.0084379213725412
4.756278139069535,1.0046742403798024
4.769984992496248,1.003751158863096
4.783691845922961,1.0006309584280892
4.7973986993496744,0.997247880845106
4.811105552776388,0.9942597483011012
4.824812406203101,0.9921948765317394
4.838519259629814,0.9900852585999912
4.852226113056528,0.9898781294442631
4.865932966483241,0.9891094605971386
4.879639819909954,0.9896552553123663
4.8933466733366675,0.9898430299358177
4.907053526763381,0.9911045423083948
4.920760380190095,0.9943213829193513
4.934467233616808,0.9969425707441807
4.948174087043522,1.0018490248418255
4.961880940470235,1.004430804217799
4.975587793896948,1.0076987607265255
4.9892946473236615,1.010781544886085
5.003001500750375,1.0146548071658315
5.016708354177088,1.016692257910843
5.030415207603801,1.0198774134915283
5.044122061030515,1.020567528093946
5.057828914457228,1.020354295568086
5.071535767883941,1.0205315259586842
5.0852426213106545,1.0175213365763145
5.098949474737368,1.0161461091095925
5.112656328164081,1.01244339271627
5.126363181590795,1.0091998411435643
5.140070035017509,1.0033935920739294
5.153776888444222,0.9986856104583914
5.167483741870935,0.9936468894605862
5.1811905952976485,0.9894303203454198
5.194897448724362,0.983801158100284
5.208604302151075,0.9789633987228923
5.222311155577788,0.9767071411755893
5.236018009004502,0.9742922581150985
5.249724862431215,0.9728358744084517
5.263431715857928,0.9706313387528872
5.2771385692846415,0.9713989051215374
5.290845422711355,0.9733881251803009
5.304552276138068,0.976382599325529
5.318259129564782,0.978967361009386
5.331965982991496,0.9843340301100582
5.345672836418209,0.9899313132752758
5.359379689844922,0.9945436573032794
5.3730865432716355,1.0010462360408876
5.386793396698349,1.006210416463436
5.400500250125062,1.0114823273000026
5.414207103551775,1.016520963105168
5.427913956978489,1.0211938751707987
5.441620810405202,1.0239708658791693
5.455327663831915,1.0271710016265427
5.4690345172586285,1.0290091456670187
5.482741370685342,1.028836969381889
5.496448224112055,1.02804244078029
5.510155077538768,1.0263238935839412
5.523861930965483,1.0236269029312304
5.537568784392196,1.0198272119729008
5.551275637818909,1.0130347677023064
5.5649824912456225,1.0106628937372601
5.578689344672336,1.005529184465382
5.592396198099049,0.9998261103810294
5.606103051525762,0.9945171699168598
5.619809904952476,0.9918261152776583
5.633516758379189,0.9861346678303554
5.647223611805902,0.9840282911482205
5.660930465232616,0.982029557267781
5.674637318659329,0.9799652400275135
5.688344172086042,0.9791695506918252
5.7020510255127554,0.9795387935967119
5.71575787893947,0.9809167218631961
5.729464732366183,0.9825688984565875
5.743171585792896,0.9858273166814061
5.7568784392196095,0.9899282908708341
5.770585292646323,0.9930076368913588
5.784292146073036,0.9944590467363112
5.797998999499749,1.000817838329995
5.811705852926463,1.003866300847676
5.825412706353176,1.0063232888683207
5.839119559779889,1.0074808367736865
5.852826413206603,1.0099520437476306
5.866533266633316,1.0118719976358799
5.880240120060029,1.0115388052481724
5.8939469734867425,1.0118067774855501
5.907653826913456,1.0100710418587326
5.92136068034017,1.0071715939554302
5.935067533766883,1.0047044673202594
5.9487743871935965,1.0023146025154532
5.96248124062031,0.9987175251218632
5.976188094047023,0.9968992825016394
5.989894947473736,0.9944248457419592
6.00360180090045,0.99106814854747
6.017308654327163,0.9900607876375831
6.031015507753876,0.9870038022036747
6.04472236118059,0.9881442211135316
6.058429214607303,0.9871099598024682
6.072136068034016,0.9885301547438159
6.0858429214607295,0.9907733756778324
6.099549774887443,0.9928792049732997
6.113256628314156,0.9960498759468523
6.12696348174087,0.9991232170813518
6.1406703351675835,1.0017366006685182
6.154377188594297,1.0069934193413737
6.16808404202101,1.0107884729461063
6.181790895447723,1.0140165036361035
6.195497748874437,1.0173174098141957
6.20920460230115,1.01947957174622
6.222911455727863,1.0212626854637792
6.236618309154577,1.0210652467205121
6.25032516258129,1.0215078095630876
6.264032016008003,1.0205363697325731
6.2777388694347165,1.0187608345629624
6.29144572286143,1.0153595334228713
6.305152576288143,1.0123419348419807
6.318859429714857,1.006695201940299
6.3325662831415706,1.0028104478156514
6.346273136568284,0.9981609060590981
6.359979989994997,0.9920613361978387
6.37368684342171,0.9873681306892562
6.387393696848424,0.9826939104612888
6.401100550275137,0.9787377162580368
6.41480740370185,0.9749908898431705
6.428514257128564,0.9715420235356182
6.442221110555277,0.970659218205683
6.45592796398199,0.9708256121785314
6.4696348174087035,0.9720247048798791
6.483341670835417,0.9746332705796887
6.49704852426213,0.9766238519845389
6.510755377688843,0.9811240842358637
6.524462231115558,0.9850320836888528
6.538169084542271,0.990770061625085
6.551875937968984,0.9956081837251078
6.5655827913956974,1.0026153423265758
6.579289644822411,1.0081340373275216
6.592996498249124,1.0136356678557643
6.606703351675837,1.0177830264527608
6.620410205102551,1.0221540821696036
6.634117058529264,1.0245249593138204
6.647823911955977,1.026730496102659
6.6615307653826905,1.0269376957772138
6.675237618809404,1.0282257446267042
6.688944472236117,1.0254774299318399
6.70265132566283,1.0244084706872325
6.716358179089544,1.0201121897187575
6.730065032516258,1.0170995847396351
6.743771885942971,1.0113421240375133
6.7574787393696845,1.0078448417932597
6.771185592796398,1.0044057493865768
6.784892446223111,0.9990861533594875
6.798599299649824,0.993758228491898
6.812306153076538,0.9901975663287526
6.826013006503251,0.9866302204163524
6.839719859929964,0.9835661098250301
6.8534267133566775,0.98272501521839
6.867133566783391,0.9818296425519626
6.880840420210104,0.981660911512253
6.894547273636817,0.9825805070964435
6.908254127063531,0.9837476387435716
6.921960980490245,0.9863169141042245
6.935667833916958,0.9898212494697987
6.9493746873436715,0.9921711027671198
6.963081540770385,0.9960629098390682
6.976788394197098,0.9997670165487754
6.990495247623811,1.0023692970656417
7.004202101050525,1.005752359667601
7.017908954477238,1.0090389650180553
7.031615807903951,1.008692435969471
7.0453226613306645,1.0105081974366177
7.059029514757378,1.0114985849338407
7.072736368184091,1.0097804136990827
7.086443221610804,1.009123812151955
7.100150075037518,1.006692260782243
7.113856928464231,1.0040463498476089
7.127563781890945,1.0018155721442452
7.1412706353176585,0.9984700145293999
7.154977488744372,0.99539804567104
7.168684342171085,0.9926293094893115
7.182391195597798,0.9905027250441837
7.196098049024512,0.988052789510244
7.209804902451225,0.9877185161551696
7.223511755877938,0.9859019579355811
7.2372186093046516,0.9856495779247888
7.250925462731365,0.9879500742298234
7.264632316158078,0.9894697153882422
7.278339169584791,0.9920304100425505
7.292046023011505,0.9943363905073451
7.305752876438218,0.9972545451063097
7.319459729864932,1.0015302091239688
7.3331665832916455,1.007075916420474
7.346873436718359,1.0093372986835154
