time,flux
0.0,0.9761961726489937
0.013706853426713355,0.9803046362234847
0.02741370685342671,0.9872156609955005
0.041120560280140064,0.9935316464688804
0.05482741370685342,0.9998901987031024
0.06853426713356678,1.0073333105340598
0.08224112056028013,1.0126236778795168
0.09594797398699349,1.0191579698791946
0.10965482741370684,1.0259902425520513
0.1233616808404202,1.030093169006231
0.13706853426713356,1.0325634682888436
0.1507753876938469,1.0345480520624417
0.16448224112056026,1.0359697532097865
0.1781890945472736,1.0346228216284428
0.19189594797398699,1.0320528599925891
0.20560280140070034,1.028724489826441
0.21930965482741369,1.0245669146065368
0.23301650825412704,1.019383199037631
0.2467233616808404,1.0137539802935667
0.26043021510755376,1.009506024668339
0.2741370685342671,1.003221931559811
0.28784392196098046,0.9965376446230958
0.3015507753876938,0.9921664059193055
0.31525762881440716,0.9879766459436274
0.3289644822411205,0.9840914197304349
0.34267133566783387,0.9811715499899553
0.3563781890945472,0.9802323617885677
0.3700850425212606,0.9793372698087478
0.38379189594797397,0.9798842995413934
0.3974987493746873,0.9830893790515813
0.41120560280140067,0.9849602919953043
0.424912456228114,0.987530221486832
0.43861930965482737,0.9927044477283543
0.4523261630815407,0.9959017926358827
0.46603301650825407,1.0010679670616422
0.4797398699349674,1.0047909672527504
0.4934467233616808,1.009769190017898
0.5071535767883941,1.0132293283413896
0.5208604302151075,1.0167730846345218
0.5345672836418208,1.0162377318145357
0.5482741370685342,1.0176933000200667
0.5619809904952475,1.0181398386260987
0.5756878439219609,1.0173894965439696
0.5893946973486743,1.014516415042591
0.6031015507753876,1.0125419137420553
0.616808404202101,1.0083216725464943
0.6305152576288143,1.003585669960529
0.6442221110555277,0.9987895234577479
0.657928964482241,0.9934079491473407
0.6716358179089544,0.988052973648122
0.6853426713356677,0.9842704175444197
0.6990495247623811,0.9807666051834781
0.7127563781890944,0.97871238795629
0.7264632316158078,0.9768491787959489
0.7401700850425212,0.9740838835941499
0.7538769384692345,0.9751308807780252
0.7675837918959479,0.9735830392670092
0.7812906453226612,0.9768334742878209
0.7949974987493746,0.9799044008623813
0.8087043521760879,0.9807082123176049
0.8224112056028013,0.9876423663518438
0.8361180590295146,0.9914144394447204
0.849824912456228,0.9962863661037467
0.8635317658829413,1.0018985559036826
0.8772386193096547,1.0064414904087082
0.8909454727363681,1.0106535853920413
0.9046523261630814,1.0139062757146489
0.9183591795897948,1.0174075525382376
0.9320660330165081,1.0204454428313805
0.9457728864432215,1.020262793942856
0.9594797398699348,1.0220810147827923
0.9731865932966483,1.0226894886032916
0.9868934467233615,1.0198572057517317
1.000600300150075,1.0181168957145645
1.0143071535767882,1.0148014270763634
1.0280140070035018,1.0126793907630316
1.041720860430215,1.0090826958814696
1.0554277138569284,1.0048886641011816
1.0691345672836416,1.001332482537699
1.0828414207103552,0.9993163321232909
1.0965482741370685,0.9962960514254727
1.1102551275637818,0.9944714745485852
1.123961980990495,0.9910263936430627
1.1376688344172086,0.9921854191777429
1.1513756878439219,0.9898519171450643
1.1650825412706352,0.9924938958333106
1.1787893946973487,0.9935936462229235
1.192496248124062,0.994854170557984
1.2062031015507753,0.997848076474333
1.2199099549774886,0.9999519247211118
1.233616808404202,1.0042686958542313
1.2473236618309154,1.0068196613124223
1.2610305152576287,1.009990446434643
1.274737368684342,1.012234956036794
1.2884442221110555,1.0138482304935228
1.3021510755377688,1.0149768069093996
1.315857928964482,1.0171019824577532
1.3295647823911956,1.0158051070858543
1.3432716358179089,1.0149620285179766
1.3569784892446222,1.01402238098118
1.3706853426713355,1.0108010857860437
1.384392196098049,1.0081662052519438
1.3980990495247623,1.0009985950684686
1.4118059029514756,0.9960412438560079
1.4255127563781889,0.9924645911051837
1.4392196098049024,0.986561319666225
1.4529264632316157,0.9818603445720248
1.466633316658329,0.9785120876933383
1.4803401700850425,0.9769370399647842
1.4940470235117558,0.972882068463441
1.507753876938469,0.9708918324258872
1.5214607303651824,0.9699462712553655
1.5351675837918959,0.9705087941779499
1.5488744372186092,0.9724110759065457
1.5625812906453225,0.9759489592689956
1.5762881440720358,0.9791963135308619
1.5899949974987493,0.9819462157853717
1.6037018509254626,0.9870049462248867
1.6174087043521759,0.9939735714217569
1.6311155577788894,0.9981739288494752
1.6448224112056027,1.0039017254976454
1.658529264632316,1.0093901415645643
1.6722361180590293,1.0149373783907356
1.6859429714857428,1.0193832871241595
1.699649824912456,1.0220042195162573
1.7133566783391694,1.0239874677668954
1.7270635317658827,1.0252091201841558
1.7407703851925962,1.0222614504767504
1.7544772386193095,1.0229056494683264
1.7681840920460228,1.0224646498140857
1.7818909454727363,1.0189378130990916
1.7955977988994496,1.0154116419045571
1.8093046523261629,1.0109226111735357
1.8230115057528762,1.0048447445843955
1.8367183591795897,1.0006607504720653
1.850425212606303,0.9955872105998421
1.8641320660330163,0.9914069274440069
1.8778389194597296,0.9866741084333561
1.891545772886443,0.9848011453352955
1.9052526263131564,0.9823578886224748
1.9189594797398697,0.9801698276311147
1.9326663331665832,0.9805544274725669
1.9463731865932965,0.9838372592128268
1.9600800400200098,0.9834274709033382
1.973786893446723,0.9883666661865478
1.9874937468734366,0.9912691709853255
2.00120060030015,0.9975466131191574
2.014907453726863,1.0017816638978239
2.0286143071535765,1.0079158100050514
2.04232116058029,1.011753150427714
2.0560280140070035,1.0174927589751293
2.069734867433717,1.022569908960959
2.08344172086043,1.0262803094035702
2.0971485742871434,1.0272956183123798
2.1108554277138567,1.0296979424764283
2.12456228114057,1.0302606132387582
2.1382691345672833,1.0287657943919604
2.1519759879939966,1.0262992488581997
2.1656828414207103,1.0237142889975854
2.1793896948474236,1.0181273514581677
2.193096548274137,1.0127001859909497
2.20680340170085,1.0059013584404342
2.2205102551275635,0.9994758652769641
2.234217108554277,0.9939251974818882
2.24792396198099,0.9851911906186205
2.261630815407704,0.979157939756545
2.275337668834417,0.9738451221433339
2.2890445222611304,0.9691512444129946
2.3027513756878437,0.9670212410746012
2.316458229114557,0.9617169570687779
2.3301650825412703,0.9609932055733024
2.3438719359679836,0.9611814541519953
2.3575787893946973,0.9623520765320941
2.3712856428214106,0.9666950515844354
2.384992496248124,0.9701210606404022
2.3986993496748372,0.9772478353189759
2.4124062031015505,0.9827840646920946
2.426113056528264,0.9899399713380417
2.439819909954977,0.9957520952031735
2.4535267633816904,1.0027686400530968
2.467233616808404,1.0090596960391647
2.4809404702351174,1.0160037873521084
2.4946473236618307,1.0196872888447308
2.508354177088544,1.0239356122699916
2.5220610305152573,1.0280450458319532
2.5357678839419706,1.028398952816017
2.549474737368684,1.030126061076027
2.5631815907953976,1.030457854848756
2.576888444222111,1.0263494053024698
2.5905952976488242,1.0238080953621382
2.6043021510755375,1.0188554718562555
2.618009004502251,1.0144388361523646
2.631715857928964,1.0107213024684243
2.6454227113556774,1.0046936695403654
2.659129564782391,0.9971564871347383
2.6728364182091044,0.991111742742513
2.6865432716358177,0.9880434952170967
2.700250125062531,0.9853303147787095
2.7139569784892443,0.9828229363121058
2.7276638319159576,0.9792254448898212
2.741370685342671,0.9807011341882205
2.755077538769384,0.9803059266632583
2.768784392196098,0.9810246699504499
2.7824912456228112,0.9849126424335679
2.7961980990495245,0.9900234850217114
2.809904952476238,0.9920909190986964
2.823611805902951,0.9980788140616548
2.8373186593296644,1.0018307934918131
2.8510255127563777,1.0085508422780403
2.8647323661830915,1.0118747995802648
2.8784392196098048,1.0173329929819452
2.892146073036518,1.0216384749030383
2.9058529264632313,1.0253776010765037
2.9195597798899446,1.0266560006555303
2.933266633316658,1.028933762003242
2.9469734867433712,1.0275050532020717
2.960680340170085,1.0268389182759983
2.9743871935967983,1.0232993226452538
2.9880940470235116,1.0203301594002914
3.001800900450225,1.0147255005769693
3.015507753876938,1.0096604564187857
3.0292146073036514,1.0041175715008441
3.0429214607303647,0.9985902096719049
3.056628314157078,0.9932623934123099
3.0703351675837918,0.9863964877998306
3.084042021010505,0.9821871826620038
3.0977488744372184,0.9769000196923947
3.1114557278639317,0.9735547431057668
3.125162581290645,0.9717945002593686
3.1388694347173582,0.9709759299324316
3.1525762881440715,0.9686603356607884
3.1662831415707853,0.9697866589271195
3.1799899949974986,0.9719606879057713
3.193696848424212,0.9747274799554762
3.207403701850925,0.9786439809358862
3.2211105552776385,0.9835604749397211
3.2348174087043517,0.9873459399406794
3.248524262131065,0.9941735475641753
3.262231115557779,0.9981408513234235
3.275937968984492,1.003271148819081
3.2896448224112054,1.006633036319152
3.3033516758379187,1.0110323752323205
3.317058529264632,1.0142360321534756
3.3307653826913453,1.015959244136868
3.3444722361180586,1.0180270244457887
3.358179089544772,1.0179033470094576
3.3718859429714856,1.0165325239645733
3.385592796398199,1.0163233612619682
3.399299649824912,1.0139133253933785
3.4130065032516255,1.0112755315720092
3.4267133566783388,1.006892556156328
3.440420210105052,1.003564192978688
3.4541270635317654,1.0008036980575001
3.467833916958479,0.9984753994605068
3.4815407703851924,0.9951292806815591
3.4952476238119057,0.9917887856457588
3.508954477238619,0.98943371695865
3.5226613306653323,0.9896313519077369
3.5363681840920456,0.9903004738481072
3.550075037518759,0.9916416498027707
3.5637818909454726,0.9925378096847458
3.577488744372186,0.9943417832214595
3.591195597798899,0.9980482279524548
3.6049024512256125,1.0004922911476415
3.6186093046523258,1.0033927273120247
3.632316158079039,1.0091327850352647
3.6460230115057524,1.0112612244669983
3.659729864932466,1.0144038256811545
3.6734367183591794,1.016084731321483
3.6871435717858927,1.0226498227084468
3.700850425212606,1.0228528984884013
3.7145572786393193,1.0205898875084383
3.7282641320660326,1.0203845373894664
3.741970985492746,1.0213376959827836
3.755677838919459,1.0177305001387063
3.769384692346173,1.015162717800338
3.783091545772886,1.0112924937766143
3.7967983991995995,1.0072723282999478
3.810505252626313,1.0028190063798637
3.824212106053026,0.9975687891164966
3.8379189594797394,0.9916587482040847
3.8516258129064527,0.9900074668132152
3.8653326663331664,0.9834384937009554
3.8790395197598797,0.9800392234668942
3.892746373186593,0.9771222472555713
3.9064532266133063,0.9759930629147439
3.9201600800400196,0.9745453379814847
3.933866933466733,0.9766059455870436
3.947573786893446,0.9773136581976754
3.96128064032016,0.979153146545456
3.974987493746873,0.9812824370281666
3.9886943471735865,0.9853191467360377
4.0024012006003,0.9895422636941509
4.016108054027013,0.9944627203695019
4.029814907453726,0.9981298333267703
4.04352176088044,1.004031802640325
4.057228614307153,1.0065512753481667
4.070935467733866,1.0087361350748545
4.08464232116058,1.0107951588600197
4.098349174587293,1.0147296804402932
4.112056028014007,1.015009742380577
4.12576288144072,1.0153851681168862
4.139469734867434,1.0148952700926936
4.153176588294147,1.0109370113972969
4.16688344172086,1.0099945726670254
4.1805902951475735,1.0071048064810166
4.194297148574287,1.0035992867529642
4.208004002001,0.9996338848009535
4.221710855427713,0.9944190497364959
4.235417708854427,0.9903479844699974
4.24912456228114,0.9864086527193942
4.262831415707853,0.9851270652102209
4.276538269134567,0.9815925788130696
4.29024512256128,0.9816862950103951
4.303951975987993,0.9812381821712582
4.317658829414707,0.982214577556576
4.331365682841421,0.984047449117056
4.345072536268134,0.9852955641377754
4.358779389694847,0.9891949377451948
4.3724862431215605,0.9939387056056012
4.386193096548274,0.9986482629472974
4.399899949974987,1.0046465775275963
4.4136068034017,1.0116375757700056
4.427313656828414,1.0173600836359267
4.441020510255127,1.0213216208242362
4.45472736368184,1.0251480800187949
4.468434217108554,1.0292311900988553
4.482141070535267,1.0314958045777565
4.49584792396198,1.0339872439660902
4.5095547773886935,1.0348346182932886
4.523261630815408,1.0323072376625368
4.536968484242121,1.028699182423275
4.550675337668834,1.0271114375719197
4.5643821910955475,1.0223025670402799
4.578089044522261,1.0172234935059365
4.591795897948974,1.0108553257450217
4.605502751375687,1.0025338593526776
4.619209604802401,0.9975847243369743
4.632916458229114,0.9917003608811908
4.646623311655827,0.98516267639165
4.660330165082541,0.9792192774119762
4.674037018509254,0.9742321643033763
4.687743871935967,0.9692967386462218
4.7014507253626805,0.9676231259023673
4.715157578789395,0.9657157144377048
4.728864432216108,0.9644692636669333
4.742571285642821,0.9673654823107619
4.756278139069535,0.9701800707379306
4.769984992496248,0.9739306416442584
4.783691845922961,0.9798093938861403
4.7973986993496744,0.9844255917588132
4.811105552776388,0.9894845649742924
4.824812406203101,0.9965851992147188
4.838519259629814,1.0025301283032555
4.852226113056528,1.0076364311630626
4.865932966483241,1.0115115128276906
4.879639819909954,1.0165886493153278
4.8933466733366675,1.020312922995484
4.907053526763381,1.0225246154174334
4.920760380190095,1.0236112780233062
4.934467233616808,1.0244340934727807
4.948174087043522,1.0210514631600751
4.961880940470235,1.0212273827487859
4.975587793896948,1.0157155135380724
4.9892946473236615,1.010533101247934
5.003001500750375,1.005834296216798
5.016708354177088,1.0035479353967098
5.030415207603801,0.9930043535655911
5.044122061030515,0.9904297506830925
5.057828914457228,0.9843914690489604
5.071535767883941,0.9813298846353223
5.0852426213106545,0.9781877885846935
5.098949474737368,0.9765978771716824
5.112656328164081,0.9735231206801451
5.126363181590795,0.9736241957792933
5.140070035017509,0.9753316580495437
5.153776888444222,0.9765533291670843
5.167483741870935,0.9812529717982615
5.1811905952976485,0.9871902889763047
5.194897448724362,0.9924699674936613
5.208604302151075,0.9980915125649343
5.222311155577788,1.0051036003634763
5.236018009004502,1.011221557529763
5.249724862431215,1.0186203863685375
5.263431715857928,1.0232985993726214
5.2771385692846415,1.0283092198599861
5.290845422711355,1.0319399094388186
5.304552276138068,1.0350949170709909
5.318259129564782,1.0355578466005197
5.331965982991496,1.035231482130898
5.345672836418209,1.0351875560564068
5.359379689844922,1.0323154332799367
5.3730865432716355,1.0277055685706176
5.386793396698349,1.0235223470049908
5.400500250125062,1.0176103559081815
5.414207103551775,1.011917803102653
5.427913956978489,1.0036907959037862
5.441620810405202,0.9989606170398868
5.455327663831915,0.9916134033636017
5.4690345172586285,0.9855255588821413
5.482741370685342,0.9798183887343445
5.496448224112055,0.9757543099211371
5.510155077538768,0.9719092263107291
5.523861930965483,0.9708768376108701
5.537568784392196,0.9707315653222012
5.551275637818909,0.9712697221902031
5.5649824912456225,0.9717203909345433
5.578689344672336,0.9740122672902543
5.592396198099049,0.976177399093677
5.606103051525762,0.9839800059651168
5.619809904952476,0.9861582686789496
5.633516758379189,0.9905116847255951
5.647223611805902,0.9965954969783155
5.660930465232616,1.0013857235061585
5.674637318659329,1.00717099192499
5.688344172086042,1.009151680065137
5.7020510255127554,1.01372954232118
5.71575787893947,1.0155592492952883
5.729464732366183,1.014672578458276
5.743171585792896,1.0164951660879442
5.7568784392196095,1.0140902124860858
5.770585292646323,1.0121343604932338
5.784292146073036,1.009914746851509
5.797998999499749,1.0065106459960245
5.811705852926463,1.0035998756785858
5.825412706353176,0.9990153528706747
5.839119559779889,0.9965750448632295
5.852826413206603,0.9915449037369143
5.866533266633316,0.9877745569426601
5.880240120060029,0.9867363602107339
5.8939469734867425,0.9828621610336842
5.907653826913456,0.9824902186801145
5.92136068034017,0.982768257573243
5.935067533766883,0.9826210843717637
5.9487743871935965,0.9847705156082716
5.96248124062031,0.9859666631978066
5.976188094047023,0.9893536410374686
5.989894947473736,0.9945555975386996
6.00360180090045,0.9990414195113234
6.017308654327163,1.0044310416525961
6.031015507753876,1.0077516422372648
6.04472236118059,1.0125529388392935
6.058429214607303,1.0159181914916455
6.072136068034016,1.0188359784867624
6.0858429214607295,1.0234956567464355
6.099549774887443,1.023368254238399
6.113256628314156,1.0260908705065945
6.12696348174087,1.024981803063653
6.1406703351675835,1.0238658357351054
6.154377188594297,1.0226086283438685
6.16808404202101,1.0187023393203032
6.181790895447723,1.0165300615880881
6.195497748874437,1.0139261918354456
6.20920460230115,1.0078479997373762
6.222911455727863,1.003640148709829
6.236618309154577,0.9975434056644369
6.25032516258129,0.9938783568303254
6.264032016008003,0.9910453682396148
6.2777388694347165,0.986538629248943
6.29144572286143,0.9841058590857059
6.305152576288143,0.983769741740528
6.318859429714857,0.9840334465271342
6.3325662831415706,0.9827622647142726
6.346273136568284,0.9833382113702634
6.359979989994997,0.9853784415647653
6.37368684342171,0.9872676499428397
6.387393696848424,0.9906009179997053
6.401100550275137,0.9944748699190115
6.41480740370185,0.9972071290292378
6.428514257128564,0.9991541293395724
6.442221110555277,1.0035553710626544
6.45592796398199,1.0044600188750734
6.4696348174087035,1.006742546470082
6.483341670835417,1.0099046156064397
6.49704852426213,1.0095261490003637
6.510755377688843,1.0091405632559
6.524462231115558,1.0080375760586806
6.538169084542271,1.0068176895257248
6.551875937968984,1.003808156667484
6.5655827913956974,1.0017127556910277
6.579289644822411,0.9977817229034297
6.592996498249124,0.9932424821311007
6.606703351675837,0.9911527308591912
6.620410205102551,0.9877645662341266
6.634117058529264,0.9830760725234164
6.647823911955977,0.981077192544588
6.6615307653826905,0.9787071223604156
6.675237618809404,0.9753118061192444
6.688944472236117,0.9786578495296918
6.70265132566283,0.976995571266163
6.716358179089544,0.9790775291437285
6.730065032516258,0.9832428841178292
6.743771885942971,0.9862744725409089
6.7574787393696845,0.9897296527115002
6.771185592796398,0.9933535193918985
6.784892446223111,1.0003416057335721
6.798599299649824,1.0067918506342042
6.812306153076538,1.0102145706447716
6.826013006503251,1.0160956167865405
6.839719859929964,1.0234001487116338
6.8534267133566775,1.024513878198385
6.867133566783391,1.0281823851552143
6.880840420210104,1.0304806753857805
6.894547273636817,1.0318259434687793
6.908254127063531,1.032062912074914
6.921960980490245,1.0303344307363054
6.935667833916958,1.0264323927941714
6.9493746873436715,1.0229098865444572
6.963081540770385,1.0187737120928289
6.976788394197098,1.0128738281241112
6.990495247623811,1.0099203956363527
7.004202101050525,1.0027089005314271
7.017908954477238,0.9968914881475679
7.031615807903951,0.9903766593643893
7.0453226613306645,0.9871197681240925
7.059029514757378,0.982929486716741
7.072736368184091,0.978591800653464
7.086443221610804,0.976881962588301
7.100150075037518,0.9766568167611717
7.113856928464231,0.9759957984004335
7.127563781890945,0.9770644274627034
7.1412706353176585,0.9779037779527369
7.154977488744372,0.982705798180674
7.168684342171085,0.9856829313303079
7.182391195597798,0.9910174005546947
7.196098049024512,0.9971790654699083
7.209804902451225,1.0025120530688638
7.223511755877938,1.0078229511014887
7.2372186093046516,1.011747283593772
7.250925462731365,1.0147622499560003
7.264632316158078,1.0193855562676388
7.278339169584791,1.0210536013061997
7.292046023011505,1.0214838622897529
7.305752876438218,1.0215519725773612
7.319459729864932,1.020220870818598
7.3331665832916455,1.0161640497013489
