time,flux
0.0,1.0077876430840544
0.013706853426713355,0.9951820413430501
0.02741370685342671,0.9874394646296322
0.041120560280140064,0.9795217896545422
0.05482741370685342,0.9744936910134655
0.06853426713356678,0.9691338494474224
0.08224112056028013,0.9635854745076914
0.09594797398699349,0.9609113652698731
0.10965482741370684,0.9582305873324517
0.1233616808404202,0.9556743164421602
0.13706853426713356,0.9579144528886644
0.1507753876938469,0.9584663462865479
0.16448224112056026,0.9600718737400387
0.1781890945472736,0.964993198918692
0.19189594797398699,0.9700638551812797
0.20560280140070034,0.9759832562717712
0.21930965482741369,0.9830566120274101
0.23301650825412704,0.9901497433035764
0.2467233616808404,0.9980195622623332
0.26043021510755376,1.0046303165981803
0.2741370685342671,1.0131734160331685
0.28784392196098046,1.0190216039424553
0.3015507753876938,1.0245068161546955
0.31525762881440716,1.0300936042438942
0.3289644822411205,1.034404812375974
0.34267133566783387,1.035831208083172
0.3563781890945472,1.0380935562630926
0.3700850425212606,1.0380097134075783
0.38379189594797397,1.037025946850259
0.3974987493746873,1.0351778788484283
0.41120560280140067,1.0300254515279879
0.424912456228114,1.0267195109835114
0.43861930965482737,1.0220795397601108
0.4523261630815407,1.0166609767552781
0.46603301650825407,1.012127111535984
0.4797398699349674,1.004388372201147
0.4934467233616808,1.0005574616774777
0.5071535767883941,0.9967941876412588
0.5208604302151075,0.9916422783366157
0.5345672836418208,0.9904479584102371
0.5482741370685342,0.9875117234201918
0.5619809904952475,0.9841746006798372
0.5756878439219609,0.9847633880751854
0.5893946973486743,0.9871863905016196
0.6031015507753876,0.9870746362320886
0.616808404202101,0.9896456707927663
0.6305152576288143,0.992923320308274
0.6442221110555277,0.9959578115328609
0.657928964482241,0.9991823022624321
0.6716358179089544,1.001184129141725
0.6853426713356677,1.006256884917656
0.6990495247623811,1.007125258479333
0.7127563781890944,1.0095065272461707
0.7264632316158078,1.0095169255999232
0.7401700850425212,1.0099839364917382
0.7538769384692345,1.0107552360236485
0.7675837918959479,1.0069534287225201
0.7812906453226612,1.0042794244931261
0.7949974987493746,1.0012669822022215
0.8087043521760879,0.9978448799666683
0.8224112056028013,0.9929568204925022
0.8361180590295146,0.9884452867247977
0.849824912456228,0.9840467972830004
0.8635317658829413,0.978083606770263
0.8772386193096547,0.9737032526647624
0.8909454727363681,0.9723528618461981
0.9046523261630814,0.9697644493322153
0.9183591795897948,0.9665500359394759
0.9320660330165081,0.9649370799386627
0.9457728864432215,0.9669952331694956
0.9594797398699348,0.9679218606962446
0.9731865932966483,0.9706388880858463
0.9868934467233615,0.9743661203535278
1.000600300150075,0.9803285119816074
1.0143071535767882,0.9880324457888253
1.0280140070035018,0.9936356089611085
1.041720860430215,1.0004634774679262
1.0554277138569284,1.0073499804868309
1.0691345672836416,1.0154882090280755
1.0828414207103552,1.0224190989174355
1.0965482741370685,1.028622064251955
1.1102551275637818,1.0339863449078743
1.123961980990495,1.0399994566470556
1.1376688344172086,1.0421922704822772
1.1513756878439219,1.0435803074082493
1.1650825412706352,1.0450420132716576
1.1787893946973487,1.0425146367237044
1.192496248124062,1.0417242582930575
1.2062031015507753,1.0387329078144862
1.2199099549774886,1.0327546649171089
1.233616808404202,1.0281157889732482
1.2473236618309154,1.021332714071787
1.2610305152576287,1.0146054195053658
1.274737368684342,1.0087676997623631
1.2884442221110555,0.9999549167757853
1.3021510755377688,0.9937350715890539
1.315857928964482,0.987925585045569
1.3295647823911956,0.9829080121376027
1.3432716358179089,0.9785605252221822
1.3569784892446222,0.9748408068234148
1.3706853426713355,0.9735160059184688
1.384392196098049,0.9713624399298141
1.3980990495247623,0.971326896599691
1.4118059029514756,0.9717097014470574
1.4255127563781889,0.9736846888751925
1.4392196098049024,0.9763161195449315
1.4529264632316157,0.9799125769381
1.466633316658329,0.9841430781060307
1.4803401700850425,0.9897287946631412
1.4940470235117558,0.9933118921976467
1.507753876938469,0.996530927996634
1.5214607303651824,1.0004825048533101
1.5351675837918959,1.0019043900356015
1.5488744372186092,1.0056299285061818
1.5625812906453225,1.0075954635017534
1.5762881440720358,1.006927977904714
1.5899949974987493,1.0070562727761416
1.6037018509254626,1.0061609608500524
1.6174087043521759,1.0044583141883023
1.6311155577788894,1.0019798259352357
1.6448224112056027,0.9982466613561322
1.658529264632316,0.9950968035632158
1.6722361180590293,0.9926192942852229
1.6859429714857428,0.9850580978445823
1.699649824912456,0.9859764772140674
1.7133566783391694,0.9828740858558119
1.7270635317658827,0.9803522596080596
1.7407703851925962,0.9806506711977443
1.7544772386193095,0.9814935478228901
1.7681840920460228,0.980715619451855
1.7818909454727363,0.9841322024703324
1.7955977988994496,0.9876627017341293
1.8093046523261629,0.9899347272015034
1.8230115057528762,0.9960554062181682
1.8367183591795897,1.0022013336402997
1.850425212606303,1.007874675350961
1.8641320660330163,1.0134178671759315
1.8778389194597296,1.0199795936500549
1.891545772886443,1.0247594358398755
1.9052526263131564,1.0288710565409014
1.9189594797398697,1.035050991143865
1.9326663331665832,1.0385196339545404
1.9463731865932965,1.040262070200654
1.9600800400200098,1.0425174782923647
1.973786893446723,1.041606077260214
1.9874937468734366,1.0403706059652067
2.00120060030015,1.0361802198645007
2.014907453726863,1.0325986150578694
2.0286143071535765,1.0271928152145542
2.04232116058029,1.02049214805427
2.0560280140070035,1.0137726436871795
2.069734867433717,1.006602873099799
2.08344172086043,0.9989914281627579
2.0971485742871434,0.9901115281195173
2.1108554277138567,0.9842553638653951
2.12456228114057,0.9782891144227603
2.1382691345672833,0.9714149786329845
2.1519759879939966,0.9664838902224381
2.1656828414207103,0.9620341074247301
2.1793896948474236,0.9600868032407884
2.193096548274137,0.9578755878316487
2.20680340170085,0.9612239630577575
2.2205102551275635,0.9607860064655981
2.234217108554277,0.9636554026345691
2.24792396198099,0.9668375003659304
2.261630815407704,0.9708865765455278
2.275337668834417,0.9776750151662148
2.2890445222611304,0.9834397596459192
2.3027513756878437,0.9898082939412578
2.316458229114557,0.9941956207156171
2.3301650825412703,1.0003354857495803
2.3438719359679836,1.0047693570156886
2.3575787893946973,1.0101935513640843
2.3712856428214106,1.0122950842837157
2.384992496248124,1.0169601843934288
2.3986993496748372,1.0170122613666415
2.4124062031015505,1.0177779338506046
2.426113056528264,1.0183651851150657
2.439819909954977,1.0169286994070865
2.4535267633816904,1.014442493674741
2.467233616808404,1.0116399526984965
2.4809404702351174,1.008895311188945
2.4946473236618307,1.0056382455840813
2.508354177088544,1.000647481907129
2.5220610305152573,0.9996781104805073
2.5357678839419706,0.9962370406788099
2.549474737368684,0.9945258254551463
2.5631815907953976,0.9943244756038943
2.576888444222111,0.9917286881141967
2.5905952976488242,0.991247168473849
2.6043021510755375,0.9937716901256659
2.618009004502251,0.9960428451008113
2.631715857928964,0.9976634163630913
2.6454227113556774,1.0019115890426031
2.659129564782391,1.0049602628046583
2.6728364182091044,1.0099424829496535
2.6865432716358177,1.012614610192497
2.700250125062531,1.0173224486845673
2.7139569784892443,1.0211694913615512
2.7276638319159576,1.0241602829914254
2.741370685342671,1.0270945342509823
2.755077538769384,1.0305381615957994
2.768784392196098,1.0292670669993282
2.7824912456228112,1.028825094328514
2.7961980990495245,1.026565243513666
2.809904952476238,1.0247554073148055
2.823611805902951,1.0215112222080318
2.8373186593296644,1.014489844855333
2.8510255127563777,1.0101598085914811
2.8647323661830915,1.0027142167437733
2.8784392196098048,0.9979665926647315
2.892146073036518,0.9895787157464085
2.9058529264632313,0.9835099751992644
2.9195597798899446,0.9755915585437952
2.933266633316658,0.9692671105105408
2.9469734867433712,0.9642918658248598
2.960680340170085,0.9596654265969181
2.9743871935967983,0.957033038767473
2.9880940470235116,0.9552890391711281
3.001800900450225,0.9550246930972999
3.015507753876938,0.9578459856641134
3.0292146073036514,0.9591304175517685
3.0429214607303647,0.9624368835862468
3.056628314157078,0.9683006757547599
3.0703351675837918,0.972842951489158
3.084042021010505,0.9814175757630432
3.0977488744372184,0.986859032197882
3.1114557278639317,0.9951636751147029
3.125162581290645,1.0015568191020816
3.1388694347173582,1.0095169809454658
3.1525762881440715,1.0159339186172036
3.1662831415707853,1.0203164970803649
3.1799899949974986,1.0264485047445797
3.193696848424212,1.0292558991437966
3.207403701850925,1.032250055382549
3.2211105552776385,1.0337124007667384
3.2348174087043517,1.0347747465446915
3.248524262131065,1.032338587008145
3.262231115557779,1.0311081051347593
3.275937968984492,1.0278889389522021
3.2896448224112054,1.0231908373416196
3.3033516758379187,1.0199035976670205
3.317058529264632,1.0142764028285804
3.3307653826913453,1.0099837825192375
3.3444722361180586,1.0039416727098542
3.358179089544772,0.9995567921980933
3.3718859429714856,0.9966384809944672
3.385592796398199,0.9935205008391571
3.399299649824912,0.9924693947087669
3.4130065032516255,0.9911421974818557
3.4267133566783388,0.9905609197738564
3.440420210105052,0.9915540797148177
3.4541270635317654,0.9919539136313533
3.467833916958479,0.993651152808116
3.4815407703851924,0.9967092639733334
3.4952476238119057,0.9996323823626603
3.508954477238619,1.0030459634360063
3.5226613306653323,1.0055880215991257
3.5363681840920456,1.007995878605772
3.550075037518759,1.012334434775959
3.5637818909454726,1.0112279195042633
3.577488744372186,1.0142979781753347
3.591195597798899,1.0140888398829428
3.6049024512256125,1.0156558274728071
3.6186093046523258,1.0127933676811365
3.632316158079039,1.0104438178888342
3.6460230115057524,1.0066057450612276
3.659729864932466,1.0025939187005402
3.6734367183591794,0.9970686658664817
3.6871435717858927,0.991825020815221
3.700850425212606,0.9864056008263627
3.7145572786393193,0.9801634828148579
3.7282641320660326,0.9772291739038232
3.741970985492746,0.970891315741368
3.755677838919459,0.9672132719140349
3.769384692346173,0.9652079611897112
3.783091545772886,0.9616264107383891
3.7967983991995995,0.9615503638092748
3.810505252626313,0.961632198200576
3.824212106053026,0.9634970815624739
3.8379189594797394,0.9672528899237539
3.8516258129064527,0.9713341121940289
3.8653326663331664,0.9773213953564077
3.8790395197598797,0.9837427874910721
3.892746373186593,0.990340154229942
3.9064532266133063,0.995817007982255
3.9201600800400196,1.0040059629810993
3.933866933466733,1.0124967258954576
3.947573786893446,1.0196763212119855
3.96128064032016,1.0261385204543203
3.974987493746873,1.032531625323246
3.9886943471735865,1.0368577824134433
4.0024012006003,1.0394525129998038
4.016108054027013,1.0418947363199496
4.029814907453726,1.0431966505996837
4.04352176088044,1.0432376704650688
4.057228614307153,1.0406805044953011
4.070935467733866,1.0364654820082786
4.08464232116058,1.032929758183164
4.098349174587293,1.0282152746348363
4.112056028014007,1.0234148686758182
4.12576288144072,1.0161173553456402
4.139469734867434,1.0097516894391851
4.153176588294147,1.0046559060613343
4.16688344172086,0.998328514666561
4.1805902951475735,0.9915082226776578
4.194297148574287,0.9867919902365306
4.208004002001,0.9828034626409675
4.221710855427713,0.9786893571381324
4.235417708854427,0.978296247080588
4.24912456228114,0.9759471874183457
4.262831415707853,0.9778690043048779
4.276538269134567,0.9778332990144922
4.29024512256128,0.980193038683509
4.303951975987993,0.9833512901370057
4.317658829414707,0.985792499143236
4.331365682841421,0.9896489933489497
4.345072536268134,0.9930020122195499
4.358779389694847,0.9958888735063437
4.3724862431215605,0.9995778756832203
4.386193096548274,1.0031486963224372
4.399899949974987,1.0052911602153731
4.4136068034017,1.0065517623663165
4.427313656828414,1.0069677599327973
4.441020510255127,1.006259558314578
4.45472736368184,1.004526159460531
4.468434217108554,1.0027129824921952
4.482141070535267,1.0006972656672386
4.49584792396198,0.9971155809439991
4.5095547773886935,0.9935999151226668
4.523261630815408,0.9898219042280675
4.536968484242121,0.9849846949392951
4.550675337668834,0.9830623872126553
4.5643821910955475,0.9784311198318273
4.578089044522261,0.9760956249425775
4.591795897948974,0.9760191817740211
4.605502751375687,0.9744284192107474
4.619209604802401,0.9753821632774096
4.632916458229114,0.9768617280819847
4.646623311655827,0.9792388918542515
4.660330165082541,0.9832564540331306
4.674037018509254,0.9881193872690184
4.687743871935967,0.9933034683066401
4.7014507253626805,0.9998800861385692
4.715157578789395,1.0052373770888203
4.728864432216108,1.0140239833594398
4.742571285642821,1.0198044362690617
4.756278139069535,1.0249456115323288
4.769984992496248,1.0317031543315822
4.783691845922961,1.034809454129671
4.7973986993496744,1.0390088874518542
4.811105552776388,1.0438772160738836
4.824812406203101,1.044303039638523
4.838519259629814,1.0440938795637633
4.852226113056528,1.042539969066517
4.865932966483241,1.0406586644693419
4.879639819909954,1.0358031540579684
4.8933466733366675,1.0311906408967466
4.907053526763381,1.023894053427561
4.920760380190095,1.0157359829869101
4.934467233616808,1.008086385124299
4.948174087043522,1.0013964954192927
4.961880940470235,0.9943108695253464
4.975587793896948,0.9872046466667566
4.9892946473236615,0.980614737404696
5.003001500750375,0.9750916979164754
5.016708354177088,0.9706796307228599
5.030415207603801,0.9676331410452327
5.044122061030515,0.9645378884576061
5.057828914457228,0.9641187724187359
5.071535767883941,0.9622458357651649
5.0852426213106545,0.9644725158509204
5.098949474737368,0.9669378300622593
5.112656328164081,0.9703360449528552
5.126363181590795,0.9748035660918544
5.140070035017509,0.9788061520235144
5.153776888444222,0.9842885774449621
5.167483741870935,0.9891321677623793
5.1811905952976485,0.9956811051518755
5.194897448724362,1.0004929218312677
5.208604302151075,1.0040901039090044
5.222311155577788,1.0076424553681917
5.236018009004502,1.0112348262832689
5.249724862431215,1.0127460046166867
5.263431715857928,1.0135271346287456
5.2771385692846415,1.013336457447011
5.290845422711355,1.0128356525577344
5.304552276138068,1.0114585038152304
5.318259129564782,1.009629469067873
5.331965982991496,1.0047868821979957
5.345672836418209,1.0015946343322972
5.359379689844922,0.9993285452656664
5.3730865432716355,0.9968512937062003
5.386793396698349,0.9926474356212638
5.400500250125062,0.99185876121591
5.414207103551775,0.9904210806661876
5.427913956978489,0.9890259764850178
5.441620810405202,0.9897941875534898
5.455327663831915,0.9903343100577563
5.4690345172586285,0.994555648133791
5.482741370685342,0.9970073246299932
5.496448224112055,0.9980407639151775
5.510155077538768,1.0031232038717093
5.523861930965483,1.006389278470314
5.537568784392196,1.012305828382437
5.551275637818909,1.0178507356404631
5.5649824912456225,1.0211175319117693
5.578689344672336,1.0267299095237608
5.592396198099049,1.0305095734736403
5.606103051525762,1.0331091867437225
5.619809904952476,1.034029409788385
5.633516758379189,1.034531477164833
5.647223611805902,1.0348914464568086
5.660930465232616,1.0322080309633583
5.674637318659329,1.0303081173522075
5.688344172086042,1.024675163744365
5.7020510255127554,1.0204362394789823
5.71575787893947,1.0144931247333095
5.729464732366183,1.0067504069048907
5.743171585792896,0.9986252819474984
5.7568784392196095,0.992004626526773
5.770585292646323,0.9849700736437038
5.784292146073036,0.9783617041189254
5.797998999499749,0.9708311718087229
5.811705852926463,0.9661734826003583
5.825412706353176,0.9617091890543755
5.839119559779889,0.9584618362266725
5.852826413206603,0.9562424703562484
5.866533266633316,0.9566327588174829
5.880240120060029,0.9568011991540452
5.8939469734867425,0.9584449553766908
5.907653826913456,0.9629730512169379
5.92136068034017,0.9673953217500874
5.935067533766883,0.9724591634671741
5.9487743871935965,0.9777035762399333
5.96248124062031,0.9849094929093881
5.976188094047023,0.9919834241520274
5.989894947473736,0.998852398660338
6.00360180090045,1.0049911151917892
6.017308654327163,1.0120372689235633
6.031015507753876,1.0173443412289476
6.04472236118059,1.0216322438679466
6.058429214607303,1.0252852060704691
6.072136068034016,1.0267528744745664
6.0858429214607295,1.027768747571871
6.099549774887443,1.028352233754253
6.113256628314156,1.026708056959998
6.12696348174087,1.0246459578355176
6.1406703351675835,1.0220761310421984
6.154377188594297,1.0188367145129569
6.16808404202101,1.014626434026636
6.181790895447723,1.0103216003399191
6.195497748874437,1.007211280401486
6.20920460230115,1.003437138187944
6.222911455727863,0.9987387138046157
6.236618309154577,0.9958994036253332
6.25032516258129,0.9940535721305258
6.264032016008003,0.9920758132988838
6.2777388694347165,0.9923000568475105
6.29144572286143,0.9935809937411657
6.305152576288143,0.9929809027968631
6.318859429714857,0.9954644846424827
6.3325662831415706,0.998818817134189
6.346273136568284,1.00286038433241
6.359979989994997,1.006399966982766
6.37368684342171,1.008362574402093
6.387393696848424,1.0133520854648137
6.401100550275137,1.015373986259135
6.41480740370185,1.0169018751922778
6.428514257128564,1.0188279735593093
6.442221110555277,1.0205863279859226
6.45592796398199,1.0196429579077286
6.4696348174087035,1.0182379120913199
6.483341670835417,1.016527149233019
6.49704852426213,1.0116576319915138
6.510755377688843,1.0082742482168243
6.524462231115558,1.0033125447228808
6.538169084542271,0.9973468716761351
6.551875937968984,0.993730848703524
6.5655827913956974,0.9859600009862851
6.579289644822411,0.9798487181878038
6.592996498249124,0.9743517102960039
6.606703351675837,0.9692769690637257
6.620410205102551,0.9645161590536598
6.634117058529264,0.9616232965490795
6.647823911955977,0.959697481327087
6.6615307653826905,0.9578179483023929
6.675237618809404,0.9584629996123918
6.688944472236117,0.960231460291398
6.70265132566283,0.9629083176161641
6.716358179089544,0.9674397426545311
6.730065032516258,0.9716894993280618
6.743771885942971,0.9787666428576507
6.7574787393696845,0.9856454384166436
6.771185592796398,0.9945753255641878
6.784892446223111,1.0007529049648447
6.798599299649824,1.0074708139361488
6.812306153076538,1.0170352374889045
6.826013006503251,1.0233495357253428
6.839719859929964,1.0287489815143342
6.8534267133566775,1.0335894621229984
6.867133566783391,1.036890232703642
6.880840420210104,1.0391016023262565
6.894547273636817,1.0398117561837275
6.908254127063531,1.0409401906247093
6.921960980490245,1.0396571647127628
6.935667833916958,1.035292023315959
6.9493746873436715,1.0320884085711797
6.963081540770385,1.0283580623411939
6.976788394197098,1.022525155913369
6.990495247623811,1.0170584577516124
7.004202101050525,1.007963915579641
7.017908954477238,1.0043016823743824
7.031615807903951,0.9992871306240823
7.0453226613306645,0.9959457014652742
7.059029514757378,0.9904877261200726
7.072736368184091,0.986044134604804
7.086443221610804,0.9831540573062565
7.100150075037518,0.9831467853052943
7.113856928464231,0.981976595323171
7.127563781890945,0.9828123862659857
7.1412706353176585,0.9850767569107995
7.154977488744372,0.9867758912251368
7.168684342171085,0.9895972595104285
7.182391195597798,0.9913450992349958
7.196098049024512,0.9946229971446188
7.209804902451225,0.9980610536427341
7.223511755877938,1.0011468195310527
7.2372186093046516,1.0032573152831927
7.250925462731365,1.0077816625995053
7.264632316158078,1.008569331737002
7.278339169584791,1.0087070438416625
7.292046023011505,1.0080053259035515
7.305752876438218,1.0063101214614363
7.319459729864932,1.0042236277981011
7.3331665832916455,1.00198742572725
7.346873436718359,0.9971082666402997
