time,flux
0.0,0.97975513653729
0.013706853426713355,0.991599072085999
0.02741370685342671,0.9986281173643508
0.041120560280140064,1.0030363399443325
0.05482741370685342,1.009568727440866
0.06853426713356678,1.0159168239350438
0.08224112056028013,1.0216276491248626
0.09594797398699349,1.027759765183003
0.10965482741370684,1.0337437871512984
0.1233616808404202,1.033556003785738
0.13706853426713356,1.0344968719273049
0.1507753876938469,1.0338740413629335
0.16448224112056026,1.0329265538993968
0.1781890945472736,1.0293788582779502
0.19189594797398699,1.0237471200442896
0.20560280140070034,1.0167664797771676
0.21930965482741369,1.0143167868184724
0.23301650825412704,1.0078553209546526
0.2467233616808404,1.0014149128308774
0.26043021510755376,0.9965726018277
0.2741370685342671,0.9906037962522695
0.28784392196098046,0.9844669805503534
0.3015507753876938,0.9810186182461774
0.31525762881440716,0.9761250089189544
0.3289644822411205,0.9740665739343068
0.34267133566783387,0.9717924199265308
0.3563781890945472,0.9732265148291918
0.3700850425212606,0.9752004413356036
0.38379189594797397,0.9751541755732339
0.3974987493746873,0.9760372962653961
0.41120560280140067,0.9811216719214737
0.424912456228114,0.9870081268257012
0.43861930965482737,0.9878229628026177
0.4523261630815407,0.9902912181613832
0.46603301650825407,0.9948769438658047
0.4797398699349674,1.0019863995978637
0.4934467233616808,1.0068793638218259
0.5071535767883941,1.008094318299126
0.5208604302151075,1.0104846889756975
0.5345672836418208,1.014417487556371
0.5482741370685342,1.0138578981617452
0.5619809904952475,1.0164288599988263
0.5756878439219609,1.0192055894198606
0.5893946973486743,1.0182418271273692
0.6031015507753876,1.0167315506467647
0.616808404202101,1.017504700961045
0.6305152576288143,1.0176001591861663
0.6442221110555277,1.0181038920070251
0.657928964482241,1.01542851424853
0.6716358179089544,1.0168592985970246
0.6853426713356677,1.013881222357857
0.6990495247623811,1.0146418944405096
0.7127563781890944,1.0083971271741536
0.7264632316158078,1.006890791340842
0.7401700850425212,1.0039910443161524
0.7538769384692345,1.0033797834684308
0.7675837918959479,1.0015141695726677
0.7812906453226612,0.9932289287789127
0.7949974987493746,0.9927866154969638
0.8087043521760879,0.986749531696497
0.8224112056028013,0.9809076867077674
0.8361180590295146,0.9789266153288706
0.849824912456228,0.9762980296252087
0.8635317658829413,0.9739391071751036
0.8772386193096547,0.9743249571565366
0.8909454727363681,0.9723460970582842
0.9046523261630814,0.9740056479607855
0.9183591795897948,0.9738497838701139
0.9320660330165081,0.9764186100123653
0.9457728864432215,0.9823792906231048
0.9594797398699348,0.9823826310159236
0.9731865932966483,0.987223769611229
0.9868934467233615,0.9902540145238765
1.000600300150075,0.9971115564850879
1.0143071535767882,1.0033383953506885
1.0280140070035018,1.015781407556891
1.041720860430215,1.0197106638231512
1.0554277138569284,1.0245307974952533
1.0691345672836416,1.0286458690182785
1.0828414207103552,1.0363373829794302
1.0965482741370685,1.0371524359079554
1.1102551275637818,1.0359754297598898
1.123961980990495,1.0378170422123196
1.1376688344172086,1.0340143542638909
1.1513756878439219,1.029016822310381
1.1650825412706352,1.0302917001738185
1.1787893946973487,1.0228378505084095
1.192496248124062,1.015968007761866
1.2062031015507753,1.0085135986546079
1.2199099549774886,0.9994687764754534
1.233616808404202,0.9926442268586897
1.2473236618309154,0.9837092788927522
1.2610305152576287,0.9777177091449956
1.274737368684342,0.9735260605001343
1.2884442221110555,0.9681339558928699
1.3021510755377688,0.9581009750211053
1.315857928964482,0.9581084977159748
1.3295647823911956,0.9618048327339352
1.3432716358179089,0.9597667383010943
1.3569784892446222,0.9676013307729475
1.3706853426713355,0.9688304676681975
1.384392196098049,0.9713402838530858
1.3980990495247623,0.9786701860029352
1.4118059029514756,0.9873502741527382
1.4255127563781889,0.9938243145434009
1.4392196098049024,0.9979492514660415
1.4529264632316157,1.0087681945447153
1.466633316658329,1.012900764660193
1.4803401700850425,1.021444809748828
1.4940470235117558,1.0243916193580034
1.507753876938469,1.0288098241504353
1.5214607303651824,1.0313009360599632
1.5351675837918959,1.033780649056605
1.5488744372186092,1.0351991565137537
1.5625812906453225,1.0312621874076267
1.5762881440720358,1.0293517405545873
1.5899949974987493,1.0294347926293166
1.6037018509254626,1.0230428550909367
1.6174087043521759,1.0175160957405447
1.6311155577788894,1.0154784508349999
1.6448224112056027,1.0097974047108176
1.658529264632316,1.00862863481067
1.6722361180590293,1.0014162548541223
1.6859429714857428,0.9954925182276441
1.699649824912456,0.9911183302316089
1.7133566783391694,0.9892832730063168
1.7270635317658827,0.9870296512831874
1.7407703851925962,0.980498423396554
1.7544772386193095,0.9795458216057469
1.7681840920460228,0.9758714878491752
1.7818909454727363,0.978099245288165
1.7955977988994496,0.9750098369684488
1.8093046523261629,0.9763490396937167
1.8230115057528762,0.9748449540761877
1.8367183591795897,0.9760901592032868
1.850425212606303,0.9780974815089866
1.8641320660330163,0.9799839911538835
1.8778389194597296,0.9847526915554662
1.891545772886443,0.9868292545889467
1.9052526263131564,0.9859070716789401
1.9189594797398697,0.9914632396308359
1.9326663331665832,0.9949565185177585
1.9463731865932965,0.9968539583987032
1.9600800400200098,1.000584925652768
1.973786893446723,1.0077355533700811
1.9874937468734366,1.0117401521587777
2.00120060030015,1.0137461566145403
2.014907453726863,1.020499602708745
2.0286143071535765,1.0244084618347935
2.04232116058029,1.0249952882205882
2.0560280140070035,1.0280022982526376
2.069734867433717,1.0280627868678478
2.08344172086043,1.0303399743056079
2.0971485742871434,1.0312690772963808
2.1108554277138567,1.0305531556156304
2.12456228114057,1.0276335093677744
2.1382691345672833,1.0240643971520347
2.1519759879939966,1.0198299337736527
2.1656828414207103,1.0167193339601581
2.1793896948474236,1.0104303429183925
2.193096548274137,1.0049007965042769
2.20680340170085,0.9970687594522164
2.2205102551275635,0.9869720854017753
2.234217108554277,0.9789261538373826
2.24792396198099,0.9720001732882694
2.261630815407704,0.9682639501647377
2.275337668834417,0.9641384786564158
2.2890445222611304,0.9642098178084814
2.3027513756878437,0.962880004122444
2.316458229114557,0.9606700173046903
2.3301650825412703,0.9599957677975738
2.3438719359679836,0.9650348682789605
2.3575787893946973,0.9680236562639887
2.3712856428214106,0.9757664070690824
2.384992496248124,0.9823415962580061
2.3986993496748372,0.9891285171176111
2.4124062031015505,0.9986481325343336
2.426113056528264,1.0025175008663487
2.439819909954977,1.0112291209704976
2.4535267633816904,1.019174718779571
2.467233616808404,1.0254957174569634
2.4809404702351174,1.0317776574441246
2.4946473236618307,1.0333240800194674
2.508354177088544,1.0354040432803109
2.5220610305152573,1.041543999037796
2.5357678839419706,1.036453638970128
2.549474737368684,1.0388103970210458
2.5631815907953976,1.035626831507877
2.576888444222111,1.0314510555801062
2.5905952976488242,1.02479498727603
2.6043021510755375,1.0201474370581964
2.618009004502251,1.0091209826647083
2.631715857928964,1.0072488727215207
2.6454227113556774,0.9931732741241197
2.659129564782391,0.993649496685928
2.6728364182091044,0.9849637993438835
2.6865432716358177,0.9770207342152962
2.700250125062531,0.9764403917171575
2.7139569784892443,0.9705739131261526
2.7276638319159576,0.9672872986648925
2.741370685342671,0.9685943502177378
2.755077538769384,0.9662390388468279
2.768784392196098,0.9717214000889617
2.7824912456228112,0.9706843588599345
2.7961980990495245,0.9747969507209087
2.809904952476238,0.9813332181453858
2.823611805902951,0.9833210694317601
2.8373186593296644,0.991011753476621
2.8510255127563777,0.9943564287483911
2.8647323661830915,0.9956709594543207
2.8784392196098048,1.0015607772699486
2.892146073036518,1.0038530193895507
2.9058529264632313,1.0108435727151017
2.9195597798899446,1.0117251424472142
2.933266633316658,1.0141340567491495
2.9469734867433712,1.0155238526104502
2.960680340170085,1.0168059352188394
2.9743871935967983,1.0199421688241375
2.9880940470235116,1.0183467735630936
3.001800900450225,1.0226637694295493
3.015507753876938,1.0222242188310546
3.0292146073036514,1.0201568226309812
3.0429214607303647,1.0185798306423888
3.056628314157078,1.0161120360971025
3.0703351675837918,1.0173584488887424
3.084042021010505,1.0116612682551618
3.0977488744372184,1.0135487671738919
3.1114557278639317,1.009339896369435
3.125162581290645,1.006716406910676
3.1388694347173582,1.0035790784264
3.1525762881440715,1.0001349262618804
3.1662831415707853,0.996686137395282
3.1799899949974986,0.9936874076632839
3.193696848424212,0.9912686626337609
3.207403701850925,0.9879970828073371
3.2211105552776385,0.9844205436589956
3.2348174087043517,0.9807538870560537
3.248524262131065,0.9759026252759772
3.262231115557779,0.9762626797126917
3.275937968984492,0.970576031495742
3.2896448224112054,0.9750030057332439
3.3033516758379187,0.9760441328718541
3.317058529264632,0.972513893272385
3.3307653826913453,0.9767496141777806
3.3444722361180586,0.9822582534412969
3.358179089544772,0.9868132898228673
3.3718859429714856,0.9923205527864183
3.385592796398199,0.9954415214680747
3.399299649824912,1.0037533849991256
3.4130065032516255,1.0095188143227183
3.4267133566783388,1.0169780387681235
3.440420210105052,1.0202145993728897
3.4541270635317654,1.0289562326542532
3.467833916958479,1.0223908725650337
3.4815407703851924,1.0303978087996093
3.4952476238119057,1.0345539861650064
3.508954477238619,1.0337028864239333
3.5226613306653323,1.0359430058511483
3.5363681840920456,1.0302548307783124
3.550075037518759,1.0307775465464744
3.5637818909454726,1.0229113541203259
3.577488744372186,1.0192801012071626
3.591195597798899,1.011601806059867
3.6049024512256125,1.0008371264316673
3.6186093046523258,0.997690458333372
3.632316158079039,0.9869007057291619
3.6460230115057524,0.9802292241728991
3.659729864932466,0.9771267883222614
3.6734367183591794,0.973648159724949
3.6871435717858927,0.9699761227001377
3.700850425212606,0.9657905008072727
3.7145572786393193,0.9624834156190907
3.7282641320660326,0.9636277198157717
3.741970985492746,0.9687685205259251
3.755677838919459,0.9722453284392586
3.769384692346173,0.9740490486202146
3.783091545772886,0.9822520476368247
3.7967983991995995,0.984793326671473
3.810505252626313,0.9933578514570441
3.824212106053026,0.9983591705849951
3.8379189594797394,1.0082934151867384
3.8516258129064527,1.013052836888388
3.8653326663331664,1.0211249045554045
3.8790395197598797,1.0200323161325207
3.892746373186593,1.02683655389412
3.9064532266133063,1.0294773608625731
3.9201600800400196,1.0287803742347579
3.933866933466733,1.0279867125272208
3.947573786893446,1.0311955330337734
3.96128064032016,1.0275537465351836
3.974987493746873,1.0248593762175462
3.9886943471735865,1.0219809195034852
4.0024012006003,1.0173544652723125
4.016108054027013,1.0101576653569333
4.029814907453726,1.006581085815269
4.04352176088044,1.0018098533946866
4.057228614307153,0.9943763346689112
4.070935467733866,0.9911359966706218
4.08464232116058,0.9878311367542454
4.098349174587293,0.9841125110144107
4.112056028014007,0.9803030798620915
4.12576288144072,0.9832562571656378
4.139469734867434,0.9771576549752111
4.153176588294147,0.9790980986909245
4.16688344172086,0.9762505337651854
4.1805902951475735,0.9800813687861337
4.194297148574287,0.9816854543523369
4.208004002001,0.9801109674598725
4.221710855427713,0.9832278979282799
4.235417708854427,0.9823693948919399
4.24912456228114,0.9855854396944798
4.262831415707853,0.9924516804002658
4.276538269134567,0.9920166665751446
4.29024512256128,0.9928836366242663
4.303951975987993,0.9973837511791106
4.317658829414707,0.9997784428982366
4.331365682841421,1.0036457044076263
4.345072536268134,1.0084755324578394
4.358779389694847,1.0107969641148276
4.3724862431215605,1.0118284802590065
4.386193096548274,1.0159723424446945
4.399899949974987,1.0139423647384846
4.4136068034017,1.0216292925858417
4.427313656828414,1.0214689949688138
4.441020510255127,1.02501474473492
4.45472736368184,1.0206320959870536
4.468434217108554,1.0206812315313385
4.482141070535267,1.0197981766722581
4.49584792396198,1.0225481248218655
4.5095547773886935,1.017311693597809
4.523261630815408,1.0207315212076633
4.536968484242121,1.012741673412561
4.550675337668834,1.0058511176984462
4.5643821910955475,1.0002498382250349
4.578089044522261,0.9983121867427098
4.591795897948974,0.9903670842184407
4.605502751375687,0.9867410138392979
4.619209604802401,0.9818609259234136
4.632916458229114,0.9784279568353732
4.646623311655827,0.972555336168929
4.660330165082541,0.9674248881027306
4.674037018509254,0.9660414684356141
4.687743871935967,0.9649351607997383
4.7014507253626805,0.9649736869403672
4.715157578789395,0.9670376382727169
4.728864432216108,0.9712161963563667
4.742571285642821,0.9709516090509819
4.756278139069535,0.9791488663083404
4.769984992496248,0.985017482118925
4.783691845922961,0.991540579035022
4.7973986993496744,1.002090136539344
4.811105552776388,1.0107493476514666
4.824812406203101,1.016709662664446
4.838519259629814,1.0240363416401863
4.852226113056528,1.0271511959024013
4.865932966483241,1.0335415661757117
4.879639819909954,1.0387587487136272
4.8933466733366675,1.0398235441170125
4.907053526763381,1.039691894442112
4.920760380190095,1.0389494827530308
4.934467233616808,1.0379508704315539
4.948174087043522,1.0340764140250296
4.961880940470235,1.0283848988273712
4.975587793896948,1.0209350936174306
4.9892946473236615,1.014911416950039
5.003001500750375,1.0090761293356356
5.016708354177088,1.0007114556278927
5.030415207603801,0.9863876109070944
5.044122061030515,0.9853095510978804
5.057828914457228,0.9770810531227478
5.071535767883941,0.9736008291262102
5.0852426213106545,0.971709406973011
5.098949474737368,0.9635846918944654
5.112656328164081,0.9654802811018333
5.126363181590795,0.9668354033228352
5.140070035017509,0.96063664044981
5.153776888444222,0.9658737805314503
5.167483741870935,0.9705075068049736
5.1811905952976485,0.9745890061902844
5.194897448724362,0.9770887107726519
5.208604302151075,0.9866888760834704
5.222311155577788,0.9934116185295909
5.236018009004502,0.9946940990956055
5.249724862431215,1.0026817295807715
5.263431715857928,1.0074229798781287
5.2771385692846415,1.0154345484664409
5.290845422711355,1.016760413418724
5.304552276138068,1.0209573660525044
5.318259129564782,1.0211369746194328
5.331965982991496,1.026493086604743
5.345672836418209,1.0260310268898833
5.359379689844922,1.0268681292494297
5.3730865432716355,1.0249875719554584
5.386793396698349,1.0259692804954104
5.400500250125062,1.0217354582947689
5.414207103551775,1.022199808518472
5.427913956978489,1.0174750188668813
5.441620810405202,1.0170070580202033
5.455327663831915,1.0114810830425616
5.4690345172586285,1.0116927896115466
5.482741370685342,1.0077250708122825
5.496448224112055,1.0021134769787663
5.510155077538768,1.0013194887033334
5.523861930965483,0.9937522395233622
5.537568784392196,0.9930475358999359
5.551275637818909,0.9857703816714176
5.5649824912456225,0.9853276810748014
5.578689344672336,0.981331645793514
5.592396198099049,0.9815681257261328
5.606103051525762,0.9742336739438786
5.619809904952476,0.974651478929194
5.633516758379189,0.9748475930802221
5.647223611805902,0.9748540030217555
5.660930465232616,0.971949316354609
5.674637318659329,0.9740153465950476
5.688344172086042,0.9736744152855581
5.7020510255127554,0.9754818654022164
5.71575787893947,0.9826208326529562
5.729464732366183,0.9845072743314329
5.743171585792896,0.9891394627111766
5.7568784392196095,0.9925869386293982
5.770585292646323,1.0008264649045095
5.784292146073036,1.006612980688165
5.797998999499749,1.0098714506325677
5.811705852926463,1.0179457717388443
5.825412706353176,1.0250496612731703
5.839119559779889,1.0288695245966653
5.852826413206603,1.0336945185719155
5.866533266633316,1.0329003062412114
5.880240120060029,1.038843533534671
5.8939469734867425,1.0372704334165184
5.907653826913456,1.0361022523618613
5.92136068034017,1.0347412646224468
5.935067533766883,1.0297761198564412
5.9487743871935965,1.0244043044679199
5.96248124062031,1.0175506960414826
5.976188094047023,1.0090441179257688
5.989894947473736,1.0080342895995391
6.00360180090045,0.9971471011712513
6.017308654327163,0.987047193023892
6.031015507753876,0.9821792255050152
6.04472236118059,0.9752530338609843
6.058429214607303,0.9685317799031561
6.072136068034016,0.9652409758242939
6.0858429214607295,0.9617886299366456
6.099549774887443,0.9600532559799786
6.113256628314156,0.9584713291453962
6.12696348174087,0.9651360254643345
6.1406703351675835,0.964441585941227
6.154377188594297,0.9684085184694488
6.16808404202101,0.9717219113135328
6.181790895447723,0.9832770351398008
6.195497748874437,0.9887979153897727
6.20920460230115,0.9934354598722485
6.222911455727863,1.004223766212936
6.236618309154577,1.0113607464625725
6.25032516258129,1.0173909809884507
6.264032016008003,1.0238129626466907
6.2777388694347165,1.0300924687933384
6.29144572286143,1.0315234344507176
6.305152576288143,1.0325063106194294
6.318859429714857,1.0367523469412698
6.3325662831415706,1.03414198443057
6.346273136568284,1.031113383427349
6.359979989994997,1.0296536355848873
6.37368684342171,1.026638088154705
6.387393696848424,1.0217719324221202
6.401100550275137,1.012558222409684
6.41480740370185,1.012587500203352
6.428514257128564,1.0025496584402958
6.442221110555277,0.9991796015897423
6.45592796398199,0.9933795294981935
6.4696348174087035,0.9906242014537181
6.483341670835417,0.9849701498477369
6.49704852426213,0.984130937922937
6.510755377688843,0.9777213356752772
6.524462231115558,0.9801171433583655
6.538169084542271,0.9780770972768797
6.551875937968984,0.9781097471190595
6.5655827913956974,0.9821281299938305
6.579289644822411,0.9769786195659009
6.592996498249124,0.9848230154865657
6.606703351675837,0.9790122098778159
6.620410205102551,0.9829745676293254
6.634117058529264,0.9895964287582237
6.647823911955977,0.9886517433259253
6.6615307653826905,0.9895625620713321
6.675237618809404,0.9918108558812126
6.688944472236117,0.9957004490397195
6.70265132566283,1.001026622875485
6.716358179089544,1.0022578071809116
6.730065032516258,1.0036228818260355
6.743771885942971,1.0074002863736877
6.7574787393696845,1.01172336517775
6.771185592796398,1.0127609460161606
6.784892446223111,1.013225466815024
6.798599299649824,1.0169709839965513
6.812306153076538,1.0187124876957532
6.826013006503251,1.0173901749942638
6.839719859929964,1.0216114626882509
6.8534267133566775,1.020475792433462
6.867133566783391,1.0182277294148319
6.880840420210104,1.0202628115989059
6.894547273636817,1.017851352063277
6.908254127063531,1.0170805610952787
6.921960980490245,1.0161157458092074
6.935667833916958,1.0112246260673865
6.9493746873436715,1.00603668918957
6.963081540770385,1.0004366638212203
6.976788394197098,0.9946427966672197
6.990495247623811,0.9916183583375591
7.004202101050525,0.9862210423680525
7.017908954477238,0.979634793591416
7.031615807903951,0.975139184139082
7.0453226613306645,0.9725677006618526
7.059029514757378,0.9710537400796517
7.072736368184091,0.9682825302239263
7.086443221610804,0.971356118507088
7.100150075037518,0.969291803706689
7.113856928464231,0.9683178401094605
7.127563781890945,0.9732433113118695
7.1412706353176585,0.9776224417020791
7.154977488744372,0.9855396932161763
7.168684342171085,0.9903389252044142
7.182391195597798,1.0001943192817841
7.196098049024512,1.0025935571453337
7.209804902451225,1.012975523413414
7.223511755877938,1.019164550756194
7.2372186093046516,1.0232387054448688
7.250925462731365,1.026252170560031
7.264632316158078,1.031670291284255
7.278339169584791,1.037022802345897
7.292046023011505,1.037815467056963
7.305752876438218,1.0363721911925923
7.319459729864932,1.0330117084693442
7.3331665832916455,1.028545304300861
7.346873436718359,1.0262665314629078
