time,flux
0.0,0.9862878246831098
0.013706853426713355,0.9841104988432307
0.02741370685342671,0.9813053071541803
0.041120560280140064,0.9776350207745496
0.05482741370685342,0.9769142664483458
0.06853426713356678,0.9740090719464254
0.08224112056028013,0.9711481899169632
0.09594797398699349,0.969949742229091
0.10965482741370684,0.968738935766613
0.1233616808404202,0.9673111164499979
0.13706853426713356,0.9664026760415937
0.1507753876938469,0.9665983913276102
0.16448224112056026,0.9662217944097962
0.1781890945472736,0.9656944383737198
0.19189594797398699,0.9672377900640838
0.20560280140070034,0.9681040284370968
0.21930965482741369,0.9689318591354346
0.23301650825412704,0.9705838717642529
0.2467233616808404,0.9720979187171148
0.26043021510755376,0.9732502518965354
0.2741370685342671,0.9759751985486398
0.28784392196098046,0.9785215493927661
0.3015507753876938,0.9813540677887925
0.31525762881440716,0.9842127300372813
0.3289644822411205,0.9857183114460131
0.34267133566783387,0.9890723744944095
0.3563781890945472,0.9921120053367908
0.3700850425212606,0.9954068372881167
0.38379189594797397,0.9976423215789795
0.3974987493746873,1.0008870760663129
0.41120560280140067,1.0038513326630123
0.424912456228114,1.0083912493016298
0.43861930965482737,1.010312052383934
0.4523261630815407,1.0128413738305593
0.46603301650825407,1.0151087760969537
0.4797398699349674,1.0180156173353172
0.4934467233616808,1.0192961705118648
0.5071535767883941,1.0226852684681058
0.5208604302151075,1.0242402938958042
0.5345672836418208,1.025438681266036
0.5482741370685342,1.0270373173959526
0.5619809904952475,1.0273151211034082
0.5756878439219609,1.027627635522564
0.5893946973486743,1.028892447177623
0.6031015507753876,1.0282611637864243
0.616808404202101,1.0282666457639
0.6305152576288143,1.0284127608487763
0.6442221110555277,1.027497881676552
0.657928964482241,1.0249753393410894
0.6716358179089544,1.0245720954584459
0.6853426713356677,1.0232627088023896
0.6990495247623811,1.0211047705072855
0.7127563781890944,1.0191618410388512
0.7264632316158078,1.0177907478914432
0.7401700850425212,1.015916197842655
0.7538769384692345,1.0122648290982896
0.7675837918959479,1.010807949019782
0.7812906453226612,1.0081204691720442
0.7949974987493746,1.0060193523280228
0.8087043521760879,1.0035310804890285
0.8224112056028013,1.0016767356927343
0.8361180590295146,0.998020085891492
0.849824912456228,0.9954134286956364
0.8635317658829413,0.9929730099111336
0.8772386193096547,0.991141464083551
0.8909454727363681,0.9879629735189112
0.9046523261630814,0.9861852345031591
0.9183591795897948,0.9856515270437608
0.9320660330165081,0.9830342821719991
0.9457728864432215,0.9810053038925625
0.9594797398699348,0.9809472086571779
0.9731865932966483,0.9797187498621838
0.9868934467233615,0.9784026143442319
1.000600300150075,0.9780573526627135
1.0143071535767882,0.9787196178287371
1.0280140070035018,0.9774180165766861
1.041720860430215,0.9776796940696996
1.0554277138569284,0.9784907922130449
1.0691345672836416,0.9789993417732967
1.0828414207103552,0.9799872441525557
1.0965482741370685,0.982169195943795
1.1102551275637818,0.9829927224690713
1.123961980990495,0.9833979040519386
1.1376688344172086,0.9861139651310558
1.1513756878439219,0.9879040289532532
1.1650825412706352,0.9892896302688039
1.1787893946973487,0.9900323666655189
1.192496248124062,0.9932238141877727
1.2062031015507753,0.9942052052878169
1.2199099549774886,0.9973173618777644
1.233616808404202,0.9987012964183732
1.2473236618309154,1.0007252542379126
1.2610305152576287,1.0033424233186172
1.274737368684342,1.0052976841830175
1.2884442221110555,1.0070583359322558
1.3021510755377688,1.009521865720938
1.315857928964482,1.0100726065674481
1.3295647823911956,1.011322592546622
1.3432716358179089,1.0133736177212704
1.3569784892446222,1.0144601030302927
1.3706853426713355,1.0150769810317988
1.384392196098049,1.0155281662190114
1.3980990495247623,1.0155543426772262
1.4118059029514756,1.0164336104956209
1.4255127563781889,1.0162216638445265
1.4392196098049024,1.0167012510896316
1.4529264632316157,1.0161421996093332
1.466633316658329,1.0156636623947584
1.4803401700850425,1.0147778728823433
1.4940470235117558,1.0134148324956276
1.507753876938469,1.013395888922936
1.5214607303651824,1.0124425201820693
1.5351675837918959,1.009482414497258
1.5488744372186092,1.0095330739867896
1.5625812906453225,1.0085048134186978
1.5762881440720358,1.0050695546526305
1.5899949974987493,1.0036082891779317
1.6037018509254626,1.002267529831051
1.6174087043521759,1.0002483782492069
1.6311155577788894,0.9988115808830139
1.6448224112056027,0.995758839814037
1.658529264632316,0.9948129496008529
1.6722361180590293,0.9929917555857887
1.6859429714857428,0.9912592397830985
1.699649824912456,0.9885127746735434
1.7133566783391694,0.987763319432082
1.7270635317658827,0.9878400470104858
1.7407703851925962,0.9864329793725015
1.7544772386193095,0.9860079847875394
1.7681840920460228,0.9843513004372816
1.7818909454727363,0.9839085882328312
1.7955977988994496,0.9828976825410632
1.8093046523261629,0.983871150130674
1.8230115057528762,0.9845787758693724
1.8367183591795897,0.9840705668895001
1.850425212606303,0.9844572196363562
1.8641320660330163,0.9846475534528965
1.8778389194597296,0.9848619581456514
1.891545772886443,0.9872413259778331
1.9052526263131564,0.9878905383076283
1.9189594797398697,0.9900719695835601
1.9326663331665832,0.9912580599023493
1.9463731865932965,0.9936864096755914
1.9600800400200098,0.9951897278861752
1.973786893446723,0.9965794434251012
1.9874937468734366,0.999698488634592
2.00120060030015,1.0013653549581178
2.014907453726863,1.002328839694266
2.0286143071535765,1.0047703680885272
2.04232116058029,1.0066270433367623
2.0560280140070035,1.0088013999426129
2.069734867433717,1.0106160009551943
2.08344172086043,1.0118823301318272
2.0971485742871434,1.0148535377021684
2.1108554277138567,1.0166251379475548
2.12456228114057,1.017821955602923
2.1382691345672833,1.0177426237615947
2.1519759879939966,1.0188365257656329
2.1656828414207103,1.0204484156795348
2.1793896948474236,1.0213677424199852
2.193096548274137,1.0209864531231025
2.20680340170085,1.0210859439176625
2.2205102551275635,1.0214994989682504
2.234217108554277,1.0207638432010564
2.24792396198099,1.0195019798991287
2.261630815407704,1.0190767533293308
2.275337668834417,1.0187107203471302
2.2890445222611304,1.0171962003318349
2.3027513756878437,1.0163693687611048
2.316458229114557,1.013496215167512
2.3301650825412703,1.0124775329473452
2.3438719359679836,1.0109615696822492
2.3575787893946973,1.008035954593529
2.3712856428214106,1.006137109467188
2.384992496248124,1.0040135812235549
2.3986993496748372,1.0019341789037532
2.4124062031015505,0.9986543271897269
2.426113056528264,0.9962892228701934
2.439819909954977,0.9932308881430846
2.4535267633816904,0.9904995453498172
2.467233616808404,0.9882988819403911
2.4809404702351174,0.9866034854365902
2.4946473236618307,0.9837489863982243
2.508354177088544,0.9817799585459278
2.5220610305152573,0.9805662463915152
2.5357678839419706,0.9779949576417197
2.549474737368684,0.9758402453594132
2.5631815907953976,0.9743468353298321
2.576888444222111,0.9738731881612498
2.5905952976488242,0.972684172151568
2.6043021510755375,0.971690892562442
2.618009004502251,0.9730166591547585
2.631715857928964,0.9718821057619367
2.6454227113556774,0.971938809831235
2.659129564782391,0.9724895258703378
2.6728364182091044,0.9732570406693457
2.6865432716358177,0.9746212875291513
2.700250125062531,0.9762338882019068
2.7139569784892443,0.977779040399135
2.7276638319159576,0.9788847607963606
2.741370685342671,0.9810399118967904
2.755077538769384,0.9838225055021894
2.768784392196098,0.986084824295586
2.7824912456228112,0.9895159963066982
2.7961980990495245,0.991004388689974
2.809904952476238,0.9941363738184849
2.823611805902951,0.9973587601855415
2.8373186593296644,0.9990090477856948
2.8510255127563777,1.0024246663724101
2.8647323661830915,1.0056301593931836
2.8784392196098048,1.0092276787893064
2.892146073036518,1.012219556665629
2.9058529264632313,1.0154884265699777
2.9195597798899446,1.017650299825769
2.933266633316658,1.0198491126299498
2.9469734867433712,1.0216792377017314
2.960680340170085,1.0246454527481863
2.9743871935967983,1.027040958755919
2.9880940470235116,1.0285730212086341
3.001800900450225,1.0301344744106395
3.015507753876938,1.0322718203367554
3.0292146073036514,1.0327573326742576
3.0429214607303647,1.032419717764585
3.056628314157078,1.0324960939194237
3.0703351675837918,1.0331912802762233
3.084042021010505,1.0330808946753705
3.0977488744372184,1.032716862117617
3.1114557278639317,1.0315851079082201
3.125162581290645,1.030196645427795
3.1388694347173582,1.0285688633608774
3.1525762881440715,1.026977878789141
3.1662831415707853,1.0244597908450181
3.1799899949974986,1.0229873575088118
3.193696848424212,1.02005507450152
3.207403701850925,1.0165123406773615
3.2211105552776385,1.0138723069286122
3.2348174087043517,1.01178643978845
3.248524262131065,1.0085300614322144
3.262231115557779,1.0047556331625795
3.275937968984492,1.0025936194170086
3.2896448224112054,0.9986972398896655
3.3033516758379187,0.9947095656653594
3.317058529264632,0.9919508964755789
3.3307653826913453,0.9877172543407691
3.3444722361180586,0.9852095224939497
3.358179089544772,0.9818445391832783
3.3718859429714856,0.9787885050657175
3.385592796398199,0.9764424633125807
3.399299649824912,0.9746603601589643
3.4130065032516255,0.9713737263123393
3.4267133566783388,0.9707548856147078
3.440420210105052,0.9681778647322908
3.4541270635317654,0.9669723128077087
3.467833916958479,0.9651767606812796
3.4815407703851924,0.9647713677039318
3.4952476238119057,0.9644995328673082
3.508954477238619,0.9640989395360638
3.5226613306653323,0.9650857955376911
3.5363681840920456,0.9655398748153903
3.550075037518759,0.9663163686600488
3.5637818909454726,0.9671787951484004
3.577488744372186,0.9692837170734155
3.591195597798899,0.9704266366089911
3.6049024512256125,0.9722568743027482
3.6186093046523258,0.9753992213949602
3.632316158079039,0.9782927754046263
3.6460230115057524,0.9803305827130123
3.659729864932466,0.9832481385379044
3.6734367183591794,0.9862985173518375
3.6871435717858927,0.9892692339739532
3.700850425212606,0.9925124141510084
3.7145572786393193,0.996607320798001
3.7282641320660326,0.999517670095385
3.741970985492746,1.0030357309029283
3.755677838919459,1.0065692274263656
3.769384692346173,1.0090220772143739
3.783091545772886,1.012553946139833
3.7967983991995995,1.0151359424969655
3.810505252626313,1.0188944734312806
3.824212106053026,1.0208713254134467
3.8379189594797394,1.023284794415202
3.8516258129064527,1.0262427415580815
3.8653326663331664,1.027508120736162
3.8790395197598797,1.0282911024130792
3.892746373186593,1.031105843708983
3.9064532266133063,1.0313540566275823
3.9201600800400196,1.0332598444526142
3.933866933466733,1.0339201420556772
3.947573786893446,1.0346715526418824
3.96128064032016,1.0334479438748712
3.974987493746873,1.0328995592219725
3.9886943471735865,1.0324773961503824
4.0024012006003,1.0312823097964576
4.016108054027013,1.0301465322473415
4.029814907453726,1.0282492178541296
4.04352176088044,1.027500339133651
4.057228614307153,1.0240206362944497
4.070935467733866,1.023311776849091
4.08464232116058,1.0187399234701997
4.098349174587293,1.016960693681713
4.112056028014007,1.0142955968072815
4.12576288144072,1.0113062910514747
4.139469734867434,1.0070542251050882
4.153176588294147,1.0052092551727192
4.16688344172086,1.0022831684224625
4.1805902951475735,0.9990473249178519
4.194297148574287,0.9955133963444643
4.208004002001,0.9924572297347072
4.221710855427713,0.9910139391435238
4.235417708854427,0.9875417179539251
4.24912456228114,0.9853475003723758
4.262831415707853,0.9821274185190417
4.276538269134567,0.9808660792066249
4.29024512256128,0.9773398682313935
4.303951975987993,0.9767753866738407
4.317658829414707,0.9745384360483728
4.331365682841421,0.9737692522810337
4.345072536268134,0.9718121567226503
4.358779389694847,0.9713872505847716
4.3724862431215605,0.971749314323131
4.386193096548274,0.9716370748296757
4.399899949974987,0.9718714000902667
4.4136068034017,0.97165632777766
4.427313656828414,0.9723821992402628
4.441020510255127,0.9732557429491344
4.45472736368184,0.9747174748585372
4.468434217108554,0.9772294719371262
4.482141070535267,0.9786411170845838
4.49584792396198,0.979836253190935
4.5095547773886935,0.9827544220052482
4.523261630815408,0.9834011500723141
4.536968484242121,0.9854398204793352
4.550675337668834,0.9889114420861357
4.5643821910955475,0.9915568046513259
4.578089044522261,0.9933857382367385
4.591795897948974,0.9964611051936382
4.605502751375687,0.999161057570255
4.619209604802401,1.0018743982264087
4.632916458229114,1.0040270417273303
4.646623311655827,1.0065469182067521
4.660330165082541,1.0094263346790289
4.674037018509254,1.0111668898511967
4.687743871935967,1.0128322478330645
4.7014507253626805,1.0152398177415725
4.715157578789395,1.016251705020174
4.728864432216108,1.017101454227443
4.742571285642821,1.0194644185003288
4.756278139069535,1.0208739531091977
4.769984992496248,1.0215184467691643
4.783691845922961,1.0217915226536407
4.7973986993496744,1.022180299720327
4.811105552776388,1.0221777906854292
4.824812406203101,1.0214380047737395
4.838519259629814,1.0207007595244721
4.852226113056528,1.0204928137731857
4.865932966483241,1.0200445810969558
4.879639819909954,1.0191550580297117
4.8933466733366675,1.0178751364869485
4.907053526763381,1.0168713724237113
4.920760380190095,1.01488862015789
4.934467233616808,1.0130347007178813
4.948174087043522,1.0105690040869653
4.961880940470235,1.0090799246530997
4.975587793896948,1.007568962075628
4.9892946473236615,1.0048005953968993
5.003001500750375,1.002342086571226
5.016708354177088,1.0010902850385097
5.030415207603801,0.9994365057445738
5.044122061030515,0.9964563796927878
5.057828914457228,0.9947927515147252
5.071535767883941,0.9934809784459535
5.0852426213106545,0.991385088520331
5.098949474737368,0.9893883639988864
5.112656328164081,0.987831213669162
5.126363181590795,0.9866056265251834
5.140070035017509,0.9854903843404501
5.153776888444222,0.9845544808695603
5.167483741870935,0.9834627742418768
5.1811905952976485,0.9839929585442562
5.194897448724362,0.9834455591666676
5.208604302151075,0.9836853732425503
5.222311155577788,0.9829257558833983
5.236018009004502,0.9832657179526194
5.249724862431215,0.9844671130882436
5.263431715857928,0.9848090005093004
5.2771385692846415,0.9858647776287544
5.290845422711355,0.9879619063494806
5.304552276138068,0.9875670117513907
5.318259129564782,0.9902491678539581
5.331965982991496,0.991619878559435
5.345672836418209,0.9927493210049386
5.359379689844922,0.9943487953138138
5.3730865432716355,0.9963030578698557
5.386793396698349,0.9986218573049103
5.400500250125062,0.9996339155030096
5.414207103551775,1.0020951301125232
5.427913956978489,1.0040462888173587
5.441620810405202,1.005766147297839
5.455327663831915,1.0073037212398523
5.4690345172586285,1.0083980027086377
5.482741370685342,1.008489167845187
5.496448224112055,1.0109041359672695
5.510155077538768,1.0124512346217924
5.523861930965483,1.014085020615587
5.537568784392196,1.0151703176892852
5.551275637818909,1.0162560180871945
5.5649824912456225,1.0157310089697729
5.578689344672336,1.0154165090424374
5.592396198099049,1.017150546140945
5.606103051525762,1.016000664140366
5.619809904952476,1.0167612153349683
5.633516758379189,1.0144074655247735
5.647223611805902,1.0150133255686833
5.660930465232616,1.0144143614832948
5.674637318659329,1.0130368425506513
5.688344172086042,1.0117617943262271
5.7020510255127554,1.0108589877046033
5.71575787893947,1.0091850928614114
5.729464732366183,1.0067424322449599
5.743171585792896,1.0060650390257706
5.7568784392196095,1.0031650423247243
5.770585292646323,1.0014182118407284
5.784292146073036,0.9990842480135127
5.797998999499749,0.9972146512120518
5.811705852926463,0.9950120980495665
5.825412706353176,0.9935354732955982
5.839119559779889,0.991363966505517
5.852826413206603,0.9900283253009231
5.866533266633316,0.9877067122314382
5.880240120060029,0.9853162502155621
5.8939469734867425,0.9840031452825635
5.907653826913456,0.9828731701491482
5.92136068034017,0.9815278353150361
5.935067533766883,0.9813597423049022
5.9487743871935965,0.9795312092820919
5.96248124062031,0.9797151634374242
5.976188094047023,0.9784569767820964
5.989894947473736,0.9791828187526831
6.00360180090045,0.977942740906402
6.017308654327163,0.9784216500371553
6.031015507753876,0.97807588675425
6.04472236118059,0.9803401025676455
6.058429214607303,0.981207701852587
6.072136068034016,0.9818054553792992
6.0858429214607295,0.9837551716609698
6.099549774887443,0.9851438657777246
6.113256628314156,0.9873149147146881
6.12696348174087,0.9884605397219336
6.1406703351675835,0.9917824495959566
6.154377188594297,0.9931147953654147
6.16808404202101,0.9955952042322483
6.181790895447723,0.9979472958580788
6.195497748874437,1.001767002649926
6.20920460230115,1.0037466178417656
6.222911455727863,1.0059369817625594
6.236618309154577,1.0083288176260983
6.25032516258129,1.0118053234695177
6.264032016008003,1.013377139870252
6.2777388694347165,1.015406629359667
6.29144572286143,1.0182876377572556
6.305152576288143,1.019119779769057
6.318859429714857,1.0211236821402954
6.3325662831415706,1.023331672898313
6.346273136568284,1.0250795297117539
6.359979989994997,1.0258105041635583
6.37368684342171,1.0268989465671006
6.387393696848424,1.0275247965398537
6.401100550275137,1.028185707429102
6.41480740370185,1.0278786740573038
6.428514257128564,1.0275435630302636
6.442221110555277,1.0274731211106742
6.45592796398199,1.026313219820186
6.4696348174087035,1.0249494901868357
6.483341670835417,1.0253650356354362
6.49704852426213,1.0219765668180127
6.510755377688843,1.022002265027957
6.524462231115558,1.0192596336420863
6.538169084542271,1.0175151456641753
6.551875937968984,1.0147957889603147
6.5655827913956974,1.0116959960587664
6.579289644822411,1.0094704796690814
6.592996498249124,1.0062802628163166
6.606703351675837,1.004087156699195
6.620410205102551,1.0008188879267252
6.634117058529264,0.9980648719322655
6.647823911955977,0.9945866460803833
6.6615307653826905,0.9919248371682162
6.675237618809404,0.9885635261117113
6.688944472236117,0.9859949074934646
6.70265132566283,0.9830071984017811
6.716358179089544,0.9812238693129446
6.730065032516258,0.9783652452882039
6.743771885942971,0.9757886519040773
6.7574787393696845,0.9733175195302857
6.771185592796398,0.971341292708837
6.784892446223111,0.9704927791455203
6.798599299649824,0.9684886990686938
6.812306153076538,0.9679637003184055
6.826013006503251,0.9670397660398292
6.839719859929964,0.9662183447163863
6.8534267133566775,0.966125629535135
6.867133566783391,0.9665063121414096
6.880840420210104,0.9670766695731235
6.894547273636817,0.9686212780314118
6.908254127063531,0.9691102371040898
6.921960980490245,0.9706132862755357
6.935667833916958,0.9723966624643445
6.9493746873436715,0.974261544699405
6.963081540770385,0.9773390927476353
6.976788394197098,0.9798623106537657
6.990495247623811,0.9818170050233787
7.004202101050525,0.9851074286577559
7.017908954477238,0.9879921586401035
7.031615807903951,0.9919219475326161
7.0453226613306645,0.9938755188943498
7.059029514757378,0.9971247853627869
7.072736368184091,1.0003803266252131
7.086443221610804,1.0049355349012583
7.100150075037518,1.007281969159242
7.113856928464231,1.0111134994515771
7.127563781890945,1.0138834802561296
7.1412706353176585,1.0167675264057265
7.154977488744372,1.0204586194665737
7.168684342171085,1.0227611434222716
7.182391195597798,1.0245275445780844
7.196098049024512,1.026490324315131
7.209804902451225,1.0299830775926304
7.223511755877938,1.0312156322550865
7.2372186093046516,1.0326225012295964
7.250925462731365,1.033881199168174
7.264632316158078,1.0335109115966343
7.278339169584791,1.0357688742268139
7.292046023011505,1.0354483017038145
7.305752876438218,1.03505867137948
7.319459729864932,1.0349849348318667
7.3331665832916455,1.0337172385394602
7.346873436718359,1.0332682783458
