time,flux
0.0,0.9890713378591903
0.013706853426713355,0.9853122216537363
0.02741370685342671,0.9796822498741269
0.041120560280140064,0.9756184842858858
0.05482741370685342,0.9735845576000256
0.06853426713356678,0.9725113271452077
0.08224112056028013,0.9734811286441458
0.09594797398699349,0.9749218519836945
0.10965482741370684,0.9783410551174899
0.1233616808404202,0.981855086081902
0.13706853426713356,0.9884389505111867
0.1507753876938469,0.9935539812961985
0.16448224112056026,1.0003552934785866
0.1781890945472736,1.005237922120066
0.19189594797398699,1.0126169542884509
0.20560280140070034,1.0188126529129065
0.21930965482741369,1.025609324631661
0.23301650825412704,1.0294084774869918
0.2467233616808404,1.0347052837121766
0.26043021510755376,1.0356656014805379
0.2741370685342671,1.0364744400735766
0.28784392196098046,1.0382011559375168
0.3015507753876938,1.03143032774545
0.31525762881440716,1.0274970031162614
0.3289644822411205,1.023227567375448
0.34267133566783387,1.0137311929079358
0.3563781890945472,1.0085103737366747
0.3700850425212606,0.9991029227384537
0.38379189594797397,0.9919290480771061
0.3974987493746873,0.9840320484253249
0.41120560280140067,0.9743841739131374
0.424912456228114,0.9704738998234446
0.43861930965482737,0.9672673946917012
0.4523261630815407,0.9630533572000456
0.46603301650825407,0.9610666461206996
0.4797398699349674,0.9592221904476305
0.4934467233616808,0.9646380627408768
0.5071535767883941,0.9646167394790464
0.5208604302151075,0.9730964715451359
0.5345672836418208,0.9782459744420234
0.5482741370685342,0.9844866025991611
0.5619809904952475,0.9909820740358978
0.5756878439219609,0.9990853411420852
0.5893946973486743,1.0056960058025686
0.6031015507753876,1.0144882919332563
0.616808404202101,1.0206689848465995
0.6305152576288143,1.0258108273693998
0.6442221110555277,1.0304007294759867
0.657928964482241,1.0307067789401192
0.6716358179089544,1.0310848291083574
0.6853426713356677,1.03201581670417
0.6990495247623811,1.0296834216104749
0.7127563781890944,1.0257530692228447
0.7264632316158078,1.0244738978199333
0.7401700850425212,1.0141483560495639
0.7538769384692345,1.0101564683760806
0.7675837918959479,1.0064287497557836
0.7812906453226612,1.000659688269911
0.7949974987493746,0.9943412724521917
0.8087043521760879,0.9881912422655956
0.8224112056028013,0.9846819158562734
0.8361180590295146,0.9817380811822247
0.849824912456228,0.9782957470517738
0.8635317658829413,0.9783299827506997
0.8772386193096547,0.9792808563087836
0.8909454727363681,0.9816370092191133
0.9046523261630814,0.9825429347330547
0.9183591795897948,0.9875138130458957
0.9320660330165081,0.987730207006768
0.9457728864432215,0.9954270944564564
0.9594797398699348,0.997318705008282
0.9731865932966483,1.0010866976240462
0.9868934467233615,1.00358510458543
1.000600300150075,1.0055212558363091
1.0143071535767882,1.00920227766006
1.0280140070035018,1.0104693137018395
1.041720860430215,1.0088519061179742
1.0554277138569284,1.0094171562864633
1.0691345672836416,1.008087535321578
1.0828414207103552,1.0054417698531355
1.0965482741370685,1.0038451840162577
1.1102551275637818,0.9989340291221763
1.123961980990495,0.9962326560997113
1.1376688344172086,0.9949434381799981
1.1513756878439219,0.9941201678648043
1.1650825412706352,0.9920671299217559
1.1787893946973487,0.9930432267735119
1.192496248124062,0.9896483267594933
1.2062031015507753,0.9954580889872571
1.2199099549774886,0.9953552805022192
1.233616808404202,0.9973665972816896
1.2473236618309154,0.9973275144359431
1.2610305152576287,1.0034207513410007
1.274737368684342,1.0093188205144399
1.2884442221110555,1.0120876706636444
1.3021510755377688,1.0152785729149885
1.315857928964482,1.0169969053818313
1.3295647823911956,1.0208931438910445
1.3432716358179089,1.0202418087073477
1.3569784892446222,1.021169142793601
1.3706853426713355,1.0203158823942227
1.384392196098049,1.0182505686811605
1.3980990495247623,1.0161348999083808
1.4118059029514756,1.0108989838819995
1.4255127563781889,1.0044557957050229
1.4392196098049024,0.9981223622357065
1.4529264632316157,0.9898041860312209
1.466633316658329,0.9871601194214304
1.4803401700850425,0.9830916604295654
1.4940470235117558,0.9751912942667706
1.507753876938469,0.9731739537779485
1.5214607303651824,0.9659650599546726
1.5351675837918959,0.9693897597667701
1.5488744372186092,0.9659049028681244
1.5625812906453225,0.9673597215762549
1.5762881440720358,0.9726500010783581
1.5899949974987493,0.9758063384723373
1.6037018509254626,0.9785844537743718
1.6174087043521759,0.9858379154822567
1.6311155577788894,0.9959644770055759
1.6448224112056027,1.0014386252636183
1.658529264632316,1.0107930037772428
1.6722361180590293,1.0179742289668954
1.6859429714857428,1.0225771596909932
1.699649824912456,1.0287536348330666
1.7133566783391694,1.0367198042672567
1.7270635317658827,1.0343498165341802
1.7407703851925962,1.039711898099615
1.7544772386193095,1.0370057789946368
1.7681840920460228,1.0353859354551784
1.7818909454727363,1.0322676800712556
1.7955977988994496,1.0275393943791233
1.8093046523261629,1.019415696642133
1.8230115057528762,1.0120806879444024
1.8367183591795897,1.0079525568228151
1.850425212606303,0.9947955870358537
1.8641320660330163,0.9905692209689747
1.8778389194597296,0.983038538519842
1.891545772886443,0.9730068168337328
1.9052526263131564,0.9700720056660199
1.9189594797398697,0.9659386750006869
1.9326663331665832,0.9651187901348122
1.9463731865932965,0.962387487110048
1.9600800400200098,0.9633025243019192
1.973786893446723,0.965035057590202
1.9874937468734366,0.970389805415038
2.00120060030015,0.9741281359421833
2.014907453726863,0.9810948211108557
2.0286143071535765,0.9902068781352943
2.04232116058029,0.99776816353421
2.0560280140070035,1.0041099168956151
2.069734867433717,1.0106593829112769
2.08344172086043,1.0139406838753517
2.0971485742871434,1.0193362620456818
2.1108554277138567,1.0229635244940216
2.12456228114057,1.0254713055562144
2.1382691345672833,1.0265687421421685
2.1519759879939966,1.0261114226678325
2.1656828414207103,1.025163750391853
2.1793896948474236,1.0219702671584006
2.193096548274137,1.0193715703050223
2.20680340170085,1.015168527889674
2.2205102551275635,1.0105684633676406
2.234217108554277,1.006703153348904
2.24792396198099,1.0002297289313407
2.261630815407704,0.9966125390188909
2.275337668834417,0.9922358571012718
2.2890445222611304,0.988669843810601
2.3027513756878437,0.9886284112605617
2.316458229114557,0.9855165087372435
2.3301650825412703,0.9870932816020909
2.3438719359679836,0.9873015808365905
2.3575787893946973,0.9883897058123282
2.3712856428214106,0.9912512052425673
2.384992496248124,0.9928582737712486
2.3986993496748372,0.9964280511891214
2.4124062031015505,1.0003096311437534
2.426113056528264,1.000542742885427
2.439819909954977,1.0047821927030713
2.4535267633816904,1.004586022470389
2.467233616808404,1.0047413485368177
2.4809404702351174,1.007219408158034
2.4946473236618307,1.0080385542766
2.508354177088544,1.0037588263046016
2.5220610305152573,1.0035354786963897
2.5357678839419706,0.9997514465689551
2.549474737368684,0.996987119669012
2.5631815907953976,0.9934070258686084
2.576888444222111,0.9926378808597371
2.5905952976488242,0.9882870313884391
2.6043021510755375,0.9863208024683638
2.618009004502251,0.9850776959601406
2.631715857928964,0.9865506949099326
2.6454227113556774,0.9847229254345555
2.659129564782391,0.9846512222838223
2.6728364182091044,0.9898647712933817
2.6865432716358177,0.9924401179356243
2.700250125062531,0.995647376446762
2.7139569784892443,1.0002681901473665
2.7276638319159576,1.0057920224554222
2.741370685342671,1.010320008462497
2.755077538769384,1.0166000165090354
2.768784392196098,1.0178880552883576
2.7824912456228112,1.0247873149192823
2.7961980990495245,1.0273623825516844
2.809904952476238,1.0302482345820547
2.823611805902951,1.0286023499815238
2.8373186593296644,1.0272318142444192
2.8510255127563777,1.0285607138320323
2.8647323661830915,1.021888729486842
2.8784392196098048,1.0131770604302281
2.892146073036518,1.0108325599365986
2.9058529264632313,1.0039341896352278
2.9195597798899446,0.9961753641542496
2.933266633316658,0.9879975344539175
2.9469734867433712,0.9796161023279897
2.960680340170085,0.9758632441889863
2.9743871935967983,0.9695198777874912
2.9880940470235116,0.9667098902546228
3.001800900450225,0.9646569327348925
3.015507753876938,0.9627128119590194
3.0292146073036514,0.9637981290247857
3.0429214607303647,0.964622946109813
3.056628314157078,0.9703913817048615
3.0703351675837918,0.9734533465396282
3.084042021010505,0.9812827924990472
3.0977488744372184,0.9891307444420914
3.1114557278639317,0.9966925542259365
3.125162581290645,1.0047908683982725
3.1388694347173582,1.013887242289276
3.1525762881440715,1.019758664246933
3.1662831415707853,1.0266015001608582
3.1799899949974986,1.031543860735978
3.193696848424212,1.0353348248605696
3.207403701850925,1.040424444601428
3.2211105552776385,1.0387526700723357
3.2348174087043517,1.0348657417647322
3.248524262131065,1.034267454626474
3.262231115557779,1.0315562910912193
3.275937968984492,1.0243346179298076
3.2896448224112054,1.0178166293322617
3.3033516758379187,1.0105533364213406
3.317058529264632,1.0018858021641794
3.3307653826913453,0.9940945561615657
3.3444722361180586,0.9876421450421674
3.358179089544772,0.9787046721010961
3.3718859429714856,0.9760872304227751
3.385592796398199,0.9705444618689373
3.399299649824912,0.9691565921582915
3.4130065032516255,0.9666939498338869
3.4267133566783388,0.9671145526262269
3.440420210105052,0.9697902574040737
3.4541270635317654,0.9720065994186344
3.467833916958479,0.9776382278225177
3.4815407703851924,0.9810224390960754
3.4952476238119057,0.9846288773936474
3.508954477238619,0.9923931331618566
3.5226613306653323,0.9999355180581384
3.5363681840920456,1.0030574620686266
3.550075037518759,1.011428718716304
3.5637818909454726,1.0135521743483769
3.577488744372186,1.018861923437008
3.591195597798899,1.0154652784257638
3.6049024512256125,1.0217440005349967
3.6186093046523258,1.019463612978204
3.632316158079039,1.0171000030218036
3.6460230115057524,1.017276324693119
3.659729864932466,1.0155840819123438
3.6734367183591794,1.0079918175089448
3.6871435717858927,1.003843713165934
3.700850425212606,1.0019292428057356
3.7145572786393193,0.9989614797660588
3.7282641320660326,0.9974635383535645
3.741970985492746,0.994271692858807
3.755677838919459,0.9916762215865459
3.769384692346173,0.9927887786349552
3.783091545772886,0.9906855603134587
3.7967983991995995,0.9936360167193802
3.810505252626313,0.9951613067613092
3.824212106053026,0.9965118247673901
3.8379189594797394,0.9983230107964424
3.8516258129064527,1.0009356454376648
3.8653326663331664,1.0039405819003666
3.8790395197598797,1.005321181324462
3.892746373186593,1.0070692413674487
3.9064532266133063,1.0108083401702992
3.9201600800400196,1.007736945976856
3.933866933466733,1.0089047630866272
3.947573786893446,1.0074890373726482
3.96128064032016,1.0066287204565034
3.974987493746873,1.0019279112423802
3.9886943471735865,1.0010674186324884
4.0024012006003,0.9970784063342276
4.016108054027013,0.9924960782356174
4.029814907453726,0.9900418288066476
4.04352176088044,0.9875992600629155
4.057228614307153,0.9836942645491175
4.070935467733866,0.9804894790695814
4.08464232116058,0.9776120863527434
4.098349174587293,0.9793002066940903
4.112056028014007,0.976692916286681
4.12576288144072,0.9793968962912257
4.139469734867434,0.9843588476912867
4.153176588294147,0.9871262206587343
4.16688344172086,0.9942839009830556
4.1805902951475735,0.9976565070199319
4.194297148574287,1.0043397908012097
4.208004002001,1.0102171409676757
4.221710855427713,1.0172364736081574
4.235417708854427,1.0234300096216018
4.24912456228114,1.0355285246035937
4.262831415707853,1.0307196512816779
4.276538269134567,1.0338895505886216
4.29024512256128,1.0318686893841753
4.303951975987993,1.0341161853777214
4.317658829414707,1.029369609378016
4.331365682841421,1.0272898443884384
4.345072536268134,1.0209371846763589
4.358779389694847,1.0170067064877235
4.3724862431215605,1.0073773056297135
4.386193096548274,1.001079553252571
4.399899949974987,0.99291880583776
4.4136068034017,0.9845392104364455
4.427313656828414,0.9774510535399555
4.441020510255127,0.969948505741174
4.45472736368184,0.9661750446102509
4.468434217108554,0.961606526998253
4.482141070535267,0.9613660751930194
4.49584792396198,0.9596925130527618
4.5095547773886935,0.9626339429290023
4.523261630815408,0.9669166376151257
4.536968484242121,0.9728125900464566
4.550675337668834,0.9769618406028144
4.5643821910955475,0.9842471764651447
4.578089044522261,0.9922161109792589
4.591795897948974,1.000996951318682
4.605502751375687,1.007169626803085
4.619209604802401,1.0151874854877585
4.632916458229114,1.0227576991838438
4.646623311655827,1.0276928418700868
4.660330165082541,1.030950045158202
4.674037018509254,1.0369192763273485
4.687743871935967,1.0348492145495956
4.7014507253626805,1.0358351141777447
4.715157578789395,1.0319743404326773
4.728864432216108,1.0295759138112475
4.742571285642821,1.0240993488137362
4.756278139069535,1.0198063144342773
4.769984992496248,1.0148278509258346
4.783691845922961,1.0082168945512169
4.7973986993496744,0.9989667579872928
4.811105552776388,0.9936841909015964
4.824812406203101,0.9865062810439493
4.838519259629814,0.9807549067305269
4.852226113056528,0.9755753638183008
4.865932966483241,0.9740323298133962
4.879639819909954,0.9758072623163515
4.8933466733366675,0.9723186537305539
4.907053526763381,0.9746417424007732
4.920760380190095,0.9768136132122824
4.934467233616808,0.9812618381687574
4.948174087043522,0.9831374119760301
4.961880940470235,0.991780057772116
4.975587793896948,0.9954512395590722
4.9892946473236615,0.9981127995973406
5.003001500750375,1.0024281221172173
5.016708354177088,1.0040205263615098
5.030415207603801,1.0068257714763074
5.044122061030515,1.010569130816322
5.057828914457228,1.0140710099359849
5.071535767883941,1.0118443303712341
5.0852426213106545,1.014295355939479
5.098949474737368,1.0102690026604526
5.112656328164081,1.0093114802512386
5.126363181590795,1.0065441451424482
5.140070035017509,1.0062743469049018
5.153776888444222,1.000612485503873
5.167483741870935,0.9995903721357987
5.1811905952976485,0.9948201242574238
5.194897448724362,0.9948086819384061
5.208604302151075,0.9931479193505005
5.222311155577788,0.9919096379052373
5.236018009004502,0.9933104795553419
5.249724862431215,0.9962548903746081
5.263431715857928,0.9956403922809587
5.2771385692846415,0.999563288524824
5.290845422711355,1.001272136338957
5.304552276138068,1.0052472160864443
5.318259129564782,1.0062002838682202
5.331965982991496,1.0110315534952221
5.345672836418209,1.0129889054748926
5.359379689844922,1.0161943886065805
5.3730865432716355,1.0162486154870103
5.386793396698349,1.0179687177006507
5.400500250125062,1.0145251745383606
5.414207103551775,1.0115439182667045
5.427913956978489,1.0106467602092144
5.441620810405202,1.006038696125086
5.455327663831915,1.0019939070624846
5.4690345172586285,0.9950740175425483
5.482741370685342,0.9893455404950213
5.496448224112055,0.9851941174525242
5.510155077538768,0.9797533135604093
5.523861930965483,0.9787104321400291
5.537568784392196,0.9758276075385823
5.551275637818909,0.9728129407818155
5.5649824912456225,0.9687422644770698
5.578689344672336,0.9702153074751889
5.592396198099049,0.9752601950752173
5.606103051525762,0.9761870924051418
5.619809904952476,0.9832573678751888
5.633516758379189,0.987621852392636
5.647223611805902,0.9938060987331552
5.660930465232616,1.0007705882958158
5.674637318659329,1.008788213767923
5.688344172086042,1.0173615901626574
5.7020510255127554,1.0230498088102402
5.71575787893947,1.0281792841029993
5.729464732366183,1.033291682278893
5.743171585792896,1.0356136307022645
5.7568784392196095,1.037990421300288
5.770585292646323,1.0369849915452334
5.784292146073036,1.036818272419663
5.797998999499749,1.0317708332700566
5.811705852926463,1.0287558129606102
5.825412706353176,1.0213257449625122
5.839119559779889,1.013414963945435
5.852826413206603,1.0045718990431365
5.866533266633316,0.9992203703357616
5.880240120060029,0.9874901956567808
5.8939469734867425,0.9809382808594025
5.907653826913456,0.9748391768358778
5.92136068034017,0.9682540952462679
5.935067533766883,0.9645763608313208
5.9487743871935965,0.9644328753129782
5.96248124062031,0.9596983858216516
5.976188094047023,0.9618775224698702
5.989894947473736,0.9640841429490975
6.00360180090045,0.9693501244450207
6.017308654327163,0.9748407309770102
6.031015507753876,0.979598224613452
6.04472236118059,0.9891879046349581
6.058429214607303,0.9949186800331374
6.072136068034016,1.0021161251432078
6.0858429214607295,1.0101146175203486
6.099549774887443,1.016723914530397
6.113256628314156,1.0207090901923148
6.12696348174087,1.0248769121018144
6.1406703351675835,1.0301388997812249
6.154377188594297,1.0298943592304683
6.16808404202101,1.0303829122914478
6.181790895447723,1.0311535709529644
6.195497748874437,1.0277562248051968
6.20920460230115,1.0251635920371194
6.222911455727863,1.0184807945101833
6.236618309154577,1.014630817794129
6.25032516258129,1.0083302125960878
6.264032016008003,1.0009324352371454
6.2777388694347165,0.9965207842587186
6.29144572286143,0.991638347661669
6.305152576288143,0.9892733487259544
6.318859429714857,0.9830633042994331
6.3325662831415706,0.9828153794385499
6.346273136568284,0.981942781738663
6.359979989994997,0.981885212235077
6.37368684342171,0.9823457635193551
6.387393696848424,0.9835882679296454
6.401100550275137,0.9866590307633843
6.41480740370185,0.9911127448450952
6.428514257128564,0.9931160839812427
6.442221110555277,0.9970923623058995
6.45592796398199,1.00132704788776
6.4696348174087035,1.003144597113474
6.483341670835417,1.0077811772289051
6.49704852426213,1.0058161928721394
6.510755377688843,1.0104752409062852
6.524462231115558,1.0095533894275666
6.538169084542271,1.0077341706094578
6.551875937968984,1.0053690620792484
6.5655827913956974,1.00405182882706
6.579289644822411,1.0012737166671721
6.592996498249124,0.9965356659884131
6.606703351675837,0.9970162011791868
6.620410205102551,0.9943228525601802
6.634117058529264,0.9899413153689249
6.647823911955977,0.9870949343999008
6.6615307653826905,0.9897626521344752
6.675237618809404,0.9896011791730507
6.688944472236117,0.9898649657285917
6.70265132566283,0.9919293750961587
6.716358179089544,0.9981592844894078
6.730065032516258,0.9992515830445189
6.743771885942971,1.0045512971910477
6.7574787393696845,1.007287891063083
6.771185592796398,1.0109982191487838
6.784892446223111,1.0162611696679191
6.798599299649824,1.017661578729767
6.812306153076538,1.021166813489674
6.826013006503251,1.0210882212051569
6.839719859929964,1.0253787570255215
6.8534267133566775,1.0225584281804567
6.867133566783391,1.0220411493936667
6.880840420210104,1.0182507928026672
6.894547273636817,1.014517549907073
6.908254127063531,1.010420433685141
6.921960980490245,1.0017793928318253
6.935667833916958,0.9953105035862699
6.9493746873436715,0.9906818716226835
6.963081540770385,0.9852440236719753
6.976788394197098,0.9779149217157344
6.990495247623811,0.9726717623703128
7.004202101050525,0.970465754149317
7.017908954477238,0.9668659951706343
7.031615807903951,0.9639114198136026
7.0453226613306645,0.9675237115252259
7.059029514757378,0.967584296427259
7.072736368184091,0.9718656794596171
7.086443221610804,0.9763074369561652
7.100150075037518,0.9827193706936025
7.113856928464231,0.9894599358845081
7.127563781890945,0.9965034969790721
7.1412706353176585,1.0053875232544403
7.154977488744372,1.010575197589758
7.168684342171085,1.0215198998314008
7.182391195597798,1.0258090427574242
7.196098049024512,1.031479044809112
7.209804902451225,1.0345532362770467
7.223511755877938,1.0381770253492983
7.2372186093046516,1.0385449896511578
7.250925462731365,1.0356803925251015
7.264632316158078,1.033222781036836
7.278339169584791,1.032182079949865
7.292046023011505,1.0265181064472613
7.305752876438218,1.0188455793489974
7.319459729864932,1.0084799312375645
7.3331665832916455,1.0038163449017197
7.346873436718359,0.9943831707993869
