time,flux
0.0,0.9676254709676784
0.013706853426713355,0.977093388306717
0.02741370685342671,0.9858722580863298
0.041120560280140064,0.9932233338026485
0.05482741370685342,1.0017855846392831
0.06853426713356678,1.013033391686057
0.08224112056028013,1.0201197609137762
0.09594797398699349,1.0260145448777485
0.10965482741370684,1.0330511044931772
0.1233616808404202,1.0367393335931727
0.13706853426713356,1.0358571737048765
0.1507753876938469,1.0390306864724697
0.16448224112056026,1.0386016148354813
0.1781890945472736,1.0337414562898484
0.19189594797398699,1.0316585344152063
0.20560280140070034,1.025531393377572
0.21930965482741369,1.0166651466827499
0.23301650825412704,1.009043038667902
0.2467233616808404,0.9997344528800287
0.26043021510755376,0.9931609295998223
0.2741370685342671,0.9832769462961805
0.28784392196098046,0.9759831794528226
0.3015507753876938,0.9681372694340914
0.31525762881440716,0.9645947220690338
0.3289644822411205,0.9569304897895416
0.34267133566783387,0.9536870368475551
0.3563781890945472,0.95147154840728
0.3700850425212606,0.9515388256516231
0.38379189594797397,0.9531413223462454
0.3974987493746873,0.9557997945164399
0.41120560280140067,0.9613217814045681
0.424912456228114,0.968058905828649
0.43861930965482737,0.9730001860789305
0.4523261630815407,0.9805227633893107
0.46603301650825407,0.9909953325868228
0.4797398699349674,0.9982369297675697
0.4934467233616808,1.0071758928146894
0.5071535767883941,1.0138561561408383
0.5208604302151075,1.0201749999314014
0.5345672836418208,1.0267859946766906
0.5482741370685342,1.031964156919046
0.5619809904952475,1.0333489164983223
0.5756878439219609,1.03709152709531
0.5893946973486743,1.0372315471210418
0.6031015507753876,1.0350372211691992
0.616808404202101,1.034102489962373
0.6305152576288143,1.030312252192377
0.6442221110555277,1.0278835663168409
0.657928964482241,1.022436204072278
0.6716358179089544,1.0150613045746322
0.6853426713356677,1.0129433337716114
0.6990495247623811,1.0046235509896655
0.7127563781890944,1.0021316650241199
0.7264632316158078,0.9973651669735729
0.7401700850425212,0.9936585647515792
0.7538769384692345,0.9900000316399085
0.7675837918959479,0.9875041733564835
0.7812906453226612,0.9857377008613422
0.7949974987493746,0.9851137033918095
0.8087043521760879,0.9852402366873336
0.8224112056028013,0.986267554598982
0.8361180590295146,0.9877337794753371
0.849824912456228,0.9909676086641621
0.8635317658829413,0.9936783440208802
0.8772386193096547,0.9955574486619053
0.8909454727363681,0.9999961208504298
0.9046523261630814,1.0008517263376837
0.9183591795897948,1.0070252537101125
0.9320660330165081,1.00945948798283
0.9457728864432215,1.0080107899540234
0.9594797398699348,1.0133954846254354
0.9731865932966483,1.0129987006347312
0.9868934467233615,1.0135584403977664
1.000600300150075,1.0140215697473525
1.0143071535767882,1.0153189024131788
1.0280140070035018,1.0149162058992984
1.041720860430215,1.0139469384366995
1.0554277138569284,1.013284693790702
1.0691345672836416,1.011765185960204
1.0828414207103552,1.0105757459277263
1.0965482741370685,1.0081724148433702
1.1102551275637818,1.0082703228284209
1.123961980990495,1.01036921501884
1.1376688344172086,1.008392867289439
1.1513756878439219,1.008627169155356
1.1650825412706352,1.0075424744313297
1.1787893946973487,1.0055692010662562
1.192496248124062,1.0070243802286325
1.2062031015507753,1.006326546784978
1.2199099549774886,1.0063585834586701
1.233616808404202,1.0048079356737534
1.2473236618309154,1.004623934621046
1.2610305152576287,1.0044098938381336
1.274737368684342,1.0032070631182788
1.2884442221110555,1.001377989423279
1.3021510755377688,0.9988981125406194
1.315857928964482,0.9983842435269253
1.3295647823911956,0.9952156558183878
1.3432716358179089,0.9915655683809202
1.3569784892446222,0.9878846485657493
1.3706853426713355,0.9843464146610678
1.384392196098049,0.9806689175907145
1.3980990495247623,0.9798413856811541
1.4118059029514756,0.9763085426004893
1.4255127563781889,0.9737801444124241
1.4392196098049024,0.9718303155507579
1.4529264632316157,0.972032640618814
1.466633316658329,0.9738868678456764
1.4803401700850425,0.9738243427277625
1.4940470235117558,0.9777550003764042
1.507753876938469,0.9796039508629134
1.5214607303651824,0.9819262650141861
1.5351675837918959,0.9871047473479654
1.5488744372186092,0.9906769167787001
1.5625812906453225,0.9986495859212862
1.5762881440720358,1.0018486265614364
1.5899949974987493,1.0042197488989812
1.6037018509254626,1.0124006648587578
1.6174087043521759,1.0176514109008823
1.6311155577788894,1.020353128821213
1.6448224112056027,1.022767901062715
1.658529264632316,1.0242480973931525
1.6722361180590293,1.0281825575491526
1.6859429714857428,1.0266808593126946
1.699649824912456,1.0234686948806215
1.7133566783391694,1.0193426004245534
1.7270635317658827,1.0147344240294551
1.7407703851925962,1.0078109149698367
1.7544772386193095,1.0026067566377965
1.7681840920460228,0.9956155136504532
1.7818909454727363,0.9897584055884641
1.7955977988994496,0.9825133217002594
1.8093046523261629,0.9764119136407444
1.8230115057528762,0.9699434869952906
1.8367183591795897,0.9638409226706509
1.850425212606303,0.9619000372929672
1.8641320660330163,0.9577877675773798
1.8778389194597296,0.9555472319234366
1.891545772886443,0.9568130174275228
1.9052526263131564,0.9599033614674511
1.9189594797398697,0.962649529539699
1.9326663331665832,0.9689599850813733
1.9463731865932965,0.9739911429822653
1.9600800400200098,0.9815491319702119
1.973786893446723,0.9928611384367819
1.9874937468734366,0.9991249076331371
2.00120060030015,1.0078935604463652
2.014907453726863,1.0196201630084891
2.0286143071535765,1.0280555470535273
2.04232116058029,1.0355925334705363
2.0560280140070035,1.0399113075387818
2.069734867433717,1.0456721060338952
2.08344172086043,1.05093082767783
2.0971485742871434,1.0542534019493068
2.1108554277138567,1.0538889237290927
2.12456228114057,1.0515059265750373
2.1382691345672833,1.0481508730597209
2.1519759879939966,1.0438369330733777
2.1656828414207103,1.0346834140413566
2.1793896948474236,1.0287680997657853
2.193096548274137,1.0180275447654346
2.20680340170085,1.0097195408896609
2.2205102551275635,1.0010788233046077
2.234217108554277,0.9927560130372052
2.24792396198099,0.9828779363562695
2.261630815407704,0.9750364183056668
2.275337668834417,0.9714520252829046
2.2890445222611304,0.9631787372170401
2.3027513756878437,0.9597645873194585
2.316458229114557,0.959021881715772
2.3301650825412703,0.9589485404419668
2.3438719359679836,0.9621742169659915
2.3575787893946973,0.9648775004344183
2.3712856428214106,0.9724288849980186
2.384992496248124,0.9786086592492093
2.3986993496748372,0.9871149320083583
2.4124062031015505,0.992972961882436
2.426113056528264,1.0024896643288883
2.439819909954977,1.01250244839765
2.4535267633816904,1.0204950132598647
2.467233616808404,1.0283088725009375
2.4809404702351174,1.035429612450998
2.4946473236618307,1.039606275333344
2.508354177088544,1.0448225224756131
2.5220610305152573,1.04753069457848
2.5357678839419706,1.0482603043309338
2.549474737368684,1.0460138452005376
2.5631815907953976,1.0410868630957888
2.576888444222111,1.0400259572737975
2.5905952976488242,1.0330151851284095
2.6043021510755375,1.0249911445532918
2.618009004502251,1.0194417863637457
2.631715857928964,1.002738917192665
2.6454227113556774,1.0014872954962266
2.659129564782391,0.9917692991235175
2.6728364182091044,0.9833921562610348
2.6865432716358177,0.9759873185259638
2.700250125062531,0.9725620421778267
2.7139569784892443,0.9664653993026904
2.7276638319159576,0.9623298918429445
2.741370685342671,0.9590999350210067
2.755077538769384,0.9584293098616302
2.768784392196098,0.957874202098488
2.7824912456228112,0.9605128160214174
2.7961980990495245,0.963038759434238
2.809904952476238,0.9679589165496598
2.823611805902951,0.9732854746097203
2.8373186593296644,0.978960706140464
2.8510255127563777,0.9856539953675756
2.8647323661830915,0.9898524734928867
2.8784392196098048,0.9974141930970489
2.892146073036518,1.0013055516725469
2.9058529264632313,1.00517723100938
2.9195597798899446,1.0113073535425212
2.933266633316658,1.0133373566657322
2.9469734867433712,1.0163333283207734
2.960680340170085,1.0174572783803946
2.9743871935967983,1.0170835870085642
2.9880940470235116,1.0155936711252977
3.001800900450225,1.0141583875944564
3.015507753876938,1.0135627661244884
3.0292146073036514,1.0103610239847283
3.0429214607303647,1.0071178724154988
3.056628314157078,1.0026192799680735
3.0703351675837918,1.0001248598583656
3.084042021010505,0.9945922343783451
3.0977488744372184,0.9926486626609445
3.1114557278639317,0.9890113336719518
3.125162581290645,0.9862274943422897
3.1388694347173582,0.9857385365843274
3.1525762881440715,0.9867506620018026
3.1662831415707853,0.9832113160468547
3.1799899949974986,0.98487802612664
3.193696848424212,0.9848267741489802
3.207403701850925,0.9855929539615687
3.2211105552776385,0.9856993846634751
3.2348174087043517,0.9882581409771796
3.248524262131065,0.9898903234961908
3.262231115557779,0.9905851889325941
3.275937968984492,0.9913852490092858
3.2896448224112054,0.9948422975107375
3.3033516758379187,0.9977493765581972
3.317058529264632,0.997998341990873
3.3307653826913453,0.9972752577540809
3.3444722361180586,0.9987288156685464
3.358179089544772,0.9987139689825976
3.3718859429714856,0.9994948043712598
3.385592796398199,1.0006012023317423
3.399299649824912,1.0007106109818569
3.4130065032516255,1.0016989545807822
3.4267133566783388,1.0024348530333023
3.440420210105052,1.0020505765943937
3.4541270635317654,1.0023336827580984
3.467833916958479,1.0046329488011867
3.4815407703851924,1.0063509356921065
3.4952476238119057,1.0076837941942063
3.508954477238619,1.0111493573398722
3.5226613306653323,1.011944407054963
3.5363681840920456,1.0152345820662099
3.550075037518759,1.0172204159468992
3.5637818909454726,1.0214784572563589
3.577488744372186,1.0214699885197362
3.591195597798899,1.0236200991827862
3.6049024512256125,1.0234691518912755
3.6186093046523258,1.0249496929501363
3.632316158079039,1.0250962542580497
3.6460230115057524,1.023149323001088
3.659729864932466,1.0236374020945551
3.6734367183591794,1.0199572008377231
3.6871435717858927,1.0180872321552992
3.700850425212606,1.0139137138565486
3.7145572786393193,1.0093677619691284
3.7282641320660326,1.0039501925926813
3.741970985492746,0.9992803407228789
3.755677838919459,0.9945519236769482
3.769384692346173,0.9910033299806297
3.783091545772886,0.9853548537795025
3.7967983991995995,0.9817771283483482
3.810505252626313,0.9775471621856913
3.824212106053026,0.975035870772078
3.8379189594797394,0.974708635160842
3.8516258129064527,0.9750270225536707
3.8653326663331664,0.9751931540006066
3.8790395197598797,0.9796399688132542
3.892746373186593,0.9831016735080665
3.9064532266133063,0.9877629366229838
3.9201600800400196,0.9939243773747778
3.933866933466733,0.9985663669164477
3.947573786893446,1.0056967591744452
3.96128064032016,1.0117394475719916
3.974987493746873,1.019196735205798
3.9886943471735865,1.025548746268838
4.0024012006003,1.0284754113640895
4.016108054027013,1.0328713345152427
4.029814907453726,1.0369656139034154
4.04352176088044,1.0386642643344388
4.057228614307153,1.0389850778668959
4.070935467733866,1.037004181365596
4.08464232116058,1.0332136144495583
4.098349174587293,1.0293699401342207
4.112056028014007,1.0255419532542625
4.12576288144072,1.0179714456150541
4.139469734867434,1.0089962269288457
4.153176588294147,1.0005348953989082
4.16688344172086,0.9919006576025617
4.1805902951475735,0.9822141264521818
4.194297148574287,0.974608946998294
4.208004002001,0.9660125450376008
4.221710855427713,0.9593280698446522
4.235417708854427,0.9518596880088419
4.24912456228114,0.9497277768945978
4.262831415707853,0.9458906602489621
4.276538269134567,0.9466030761736941
4.29024512256128,0.9482168422299903
4.303951975987993,0.9489731165119768
4.317658829414707,0.9535408233335588
4.331365682841421,0.9602019965524317
4.345072536268134,0.970147248061954
4.358779389694847,0.9777099684376808
4.3724862431215605,0.9863667084195812
4.386193096548274,0.9961684210504038
4.399899949974987,1.0044074443215685
4.4136068034017,1.0146184824683802
4.427313656828414,1.0215844959156846
4.441020510255127,1.0283161568500145
4.45472736368184,1.0356010431506746
4.468434217108554,1.0389985588205195
4.482141070535267,1.0426117242454989
4.49584792396198,1.0415267997564492
4.5095547773886935,1.0402117274045635
4.523261630815408,1.0388415906964883
4.536968484242121,1.0309214349900702
4.550675337668834,1.026321619126413
4.5643821910955475,1.0188392968840425
4.578089044522261,1.0123818750221545
4.591795897948974,1.0029905857805173
4.605502751375687,0.993839544305321
4.619209604802401,0.9853404717638485
4.632916458229114,0.9767460190516565
4.646623311655827,0.9695100594953311
4.660330165082541,0.9633119253306854
4.674037018509254,0.9593426052451001
4.687743871935967,0.9568672205984977
4.7014507253626805,0.9537791413149125
4.715157578789395,0.9556757529727857
4.728864432216108,0.956855128130898
4.742571285642821,0.9613054078202826
4.756278139069535,0.9647442309013623
4.769984992496248,0.9742418508607803
4.783691845922961,0.9831096882783849
4.7973986993496744,0.9890304101931393
4.811105552776388,0.997880799016938
4.824812406203101,1.0092742609829022
4.838519259629814,1.0172141911159605
4.852226113056528,1.0250791389776608
4.865932966483241,1.0311035822457446
4.879639819909954,1.037297159628978
4.8933466733366675,1.0410309060553131
4.907053526763381,1.0427555551879897
4.920760380190095,1.0458129811631114
4.934467233616808,1.0443221086043075
4.948174087043522,1.0442973802641695
4.961880940470235,1.0415430541995643
4.975587793896948,1.0363966289139621
4.9892946473236615,1.030145930223484
5.003001500750375,1.025920327519608
5.016708354177088,1.018923370519111
5.030415207603801,1.0125904436643245
5.044122061030515,1.0060427509154601
5.057828914457228,0.9996527594753059
5.071535767883941,0.9935434212337123
5.0852426213106545,0.9887701691672787
5.098949474737368,0.9858991493526432
5.112656328164081,0.9827250451306503
5.126363181590795,0.980180678668221
5.140070035017509,0.9785270915863444
5.153776888444222,0.9800970234986839
5.167483741870935,0.9804589946183233
5.1811905952976485,0.981327898323915
5.194897448724362,0.9841650243286303
5.208604302151075,0.9884259153768407
5.222311155577788,0.9920584789868674
5.236018009004502,0.997374862819954
5.249724862431215,1.0015383670206017
5.263431715857928,1.0041180516223842
5.2771385692846415,1.0092427104681287
5.290845422711355,1.0105458236915086
5.304552276138068,1.0125910069915287
5.318259129564782,1.0152184601555412
5.331965982991496,1.0160289318223104
5.345672836418209,1.0170749433305768
5.359379689844922,1.0162688194687381
5.3730865432716355,1.015235025989433
5.386793396698349,1.0143091175183088
5.400500250125062,1.0114490967772518
5.414207103551775,1.0102898892258232
5.427913956978489,1.0075628825509841
5.441620810405202,1.0055868567307569
5.455327663831915,1.0032877219954026
5.4690345172586285,1.003574367163925
5.482741370685342,1.0002763595108772
5.496448224112055,0.9995296860507366
5.510155077538768,0.9967816938969197
5.523861930965483,0.9963141330804153
5.537568784392196,0.9967164744708629
5.551275637818909,0.9941689606521318
5.5649824912456225,0.9940264349795089
5.578689344672336,0.9937676012303833
5.592396198099049,0.9934503054034367
5.606103051525762,0.991623958944386
5.619809904952476,0.992956215932664
5.633516758379189,0.9912144657905758
5.647223611805902,0.9909764687148277
5.660930465232616,0.9884714714423497
5.674637318659329,0.9876406041935053
5.688344172086042,0.9868373856265786
5.7020510255127554,0.984661990851033
5.71575787893947,0.9836039021395602
5.729464732366183,0.9829235918275294
5.743171585792896,0.9806960788263318
5.7568784392196095,0.978397291314449
5.770585292646323,0.9781665734985112
5.784292146073036,0.976376687836085
5.797998999499749,0.9786575401256776
5.811705852926463,0.9789912521882451
5.825412706353176,0.9813606940955297
5.839119559779889,0.9828791668946047
5.852826413206603,0.9839120968899766
5.866533266633316,0.9867245745832084
5.880240120060029,0.9913019766410768
5.8939469734867425,0.996374139088903
5.907653826913456,1.0008490027018706
5.92136068034017,1.0047337219541865
5.935067533766883,1.0093972926867818
5.9487743871935965,1.0123665291381736
5.96248124062031,1.0167618628086394
5.976188094047023,1.0215112545600205
5.989894947473736,1.019998734082525
6.00360180090045,1.0245799223537446
6.017308654327163,1.0253819145328997
6.031015507753876,1.0247329459852812
6.04472236118059,1.0217127989948631
6.058429214607303,1.0193960656170118
6.072136068034016,1.0133520837952301
6.0858429214607295,1.0118518678593122
6.099549774887443,1.0059656803060877
6.113256628314156,0.999388288413554
6.12696348174087,0.9946154613673371
6.1406703351675835,0.9876944957910327
6.154377188594297,0.9819991104233856
6.16808404202101,0.9763386481931271
6.181790895447723,0.9733837123915577
6.195497748874437,0.9700070243142666
6.20920460230115,0.9674083594502388
6.222911455727863,0.9654843760898245
6.236618309154577,0.9672128464693729
6.25032516258129,0.9696394669778081
6.264032016008003,0.9726953820231116
6.2777388694347165,0.9772153075162737
6.29144572286143,0.9836300398820963
6.305152576288143,0.9906051239765994
6.318859429714857,0.9976709328923143
6.3325662831415706,1.0073804815574963
6.346273136568284,1.015652337193717
6.359979989994997,1.0242289258300934
6.37368684342171,1.0318757024223464
6.387393696848424,1.0383088311002204
6.401100550275137,1.043579018956951
6.41480740370185,1.0494016902098149
6.428514257128564,1.0537561871898897
6.442221110555277,1.0540305318334338
6.45592796398199,1.0523938817532372
6.4696348174087035,1.0516017777205173
6.483341670835417,1.047984746197479
6.49704852426213,1.0397918394112424
6.510755377688843,1.0381054673657613
6.524462231115558,1.024956262918553
6.538169084542271,1.0153552826609702
6.551875937968984,1.0076669477272104
6.5655827913956974,0.9982198717326711
6.579289644822411,0.989342744509971
6.592996498249124,0.980167941079018
6.606703351675837,0.9723676635600235
6.620410205102551,0.9653487416384618
6.634117058529264,0.9619751384621227
6.647823911955977,0.9555973940929258
6.6615307653826905,0.9568868646438315
6.675237618809404,0.9582610945395292
6.688944472236117,0.9581778872984504
6.70265132566283,0.9627665835103235
6.716358179089544,0.9686219514372024
6.730065032516258,0.9744640693969906
6.743771885942971,0.9816402253567965
6.7574787393696845,0.9915204420418977
6.771185592796398,1.0009448129781076
6.784892446223111,1.008109696219812
6.798599299649824,1.017688999499581
6.812306153076538,1.026392468209665
6.826013006503251,1.0323625885725403
6.839719859929964,1.0372856512072117
6.8534267133566775,1.0400680024719269
6.867133566783391,1.0428455895557074
6.880840420210104,1.0416391791701372
6.894547273636817,1.0407184689359952
6.908254127063531,1.0380301703309947
6.921960980490245,1.0331512475487208
6.935667833916958,1.0271203796634205
6.9493746873436715,1.020408454794575
6.963081540770385,1.0100121782915794
6.976788394197098,1.0017480385204576
6.990495247623811,0.9930558090646937
7.004202101050525,0.9853453147149288
7.017908954477238,0.9761966767343035
7.031615807903951,0.9708878411374118
7.0453226613306645,0.9628610719279848
7.059029514757378,0.9565983517787684
7.072736368184091,0.9541846632680044
7.086443221610804,0.9525165774733686
7.100150075037518,0.9542911829815327
7.113856928464231,0.9534075218246537
7.127563781890945,0.9549757798975724
7.1412706353176585,0.9589232640070088
7.154977488744372,0.96470001470659
7.168684342171085,0.9709415494357948
7.182391195597798,0.9779644279993003
7.196098049024512,0.9857847757611105
7.209804902451225,0.993041983052281
7.223511755877938,1.0004252325881768
7.2372186093046516,1.005842910676739
7.250925462731365,1.0114506203919016
7.264632316158078,1.0177003942890257
7.278339169584791,1.0209253172499042
7.292046023011505,1.0242776198377879
7.305752876438218,1.024179654840208
7.319459729864932,1.0236259631521067
7.3331665832916455,1.0245784080973313
7.346873436718359,1.021961078812227
