time,flux
0.0,0.9773433167229527
0.013706853426713355,0.9751475263836774
0.02741370685342671,0.9751273794073239
0.041120560280140064,0.9751028953553639
0.05482741370685342,0.9757785066667778
0.06853426713356678,0.9766571180123054
0.08224112056028013,0.9810235545241992
0.09594797398699349,0.9839329769425967
0.10965482741370684,0.987570838577121
0.1233616808404202,0.9938855250554331
0.13706853426713356,0.9978601974819978
0.1507753876938469,1.0034474748815518
0.16448224112056026,1.0087891958931208
0.1781890945472736,1.0121653875453611
0.19189594797398699,1.016759384970912
0.20560280140070034,1.0206816954640927
0.21930965482741369,1.022816897311278
0.23301650825412704,1.0244616570615894
0.2467233616808404,1.02583794782948
0.26043021510755376,1.0251963120651988
0.2741370685342671,1.0246747802747924
0.28784392196098046,1.0210485913771017
0.3015507753876938,1.0195322783282004
0.31525762881440716,1.0151335687240355
0.3289644822411205,1.0105302768466469
0.34267133566783387,1.0064782799138177
0.3563781890945472,0.9997212326674251
0.3700850425212606,0.995740380790953
0.38379189594797397,0.9910414499664648
0.3974987493746873,0.9868682358237237
0.41120560280140067,0.9820204090777064
0.424912456228114,0.9784425779030923
0.43861930965482737,0.9763371392624932
0.4523261630815407,0.9751119790758048
0.46603301650825407,0.9741431689258226
0.4797398699349674,0.9739326209083607
0.4934467233616808,0.9761789688214684
0.5071535767883941,0.9789590324925456
0.5208604302151075,0.9821486543628105
0.5345672836418208,0.9861622938697768
0.5482741370685342,0.9907629984707106
0.5619809904952475,0.9944099760721838
0.5756878439219609,1.0002404988969449
0.5893946973486743,1.0055575753305863
0.6031015507753876,1.0112598512084927
0.616808404202101,1.0152639496115132
0.6305152576288143,1.019163271391679
0.6442221110555277,1.022051483747446
0.657928964482241,1.0240604812589926
0.6716358179089544,1.02477879658922
0.6853426713356677,1.0263364752303166
0.6990495247623811,1.0248077611678497
0.7127563781890944,1.0221280271962716
0.7264632316158078,1.0206848349476514
0.7401700850425212,1.0167368804389643
0.7538769384692345,1.0130009273297196
0.7675837918959479,1.0077389574567719
0.7812906453226612,1.0020466667362746
0.7949974987493746,0.9986545138795373
0.8087043521760879,0.9932648713212545
0.8224112056028013,0.9881920570385399
0.8361180590295146,0.9825808543638892
0.849824912456228,0.9800567977495847
0.8635317658829413,0.9770260833748651
0.8772386193096547,0.9734304682782089
0.8909454727363681,0.974259314271601
0.9046523261630814,0.9737844716977601
0.9183591795897948,0.975453646409712
0.9320660330165081,0.9774401236705537
0.9457728864432215,0.9809181150505213
0.9594797398699348,0.9840669067756647
0.9731865932966483,0.9881327058650918
0.9868934467233615,0.9929381955977631
1.000600300150075,0.9991996188667114
1.0143071535767882,1.0038814775813683
1.0280140070035018,1.0084882553525694
1.041720860430215,1.012260444474916
1.0554277138569284,1.0161928517214553
1.0691345672836416,1.0205970632520371
1.0828414207103552,1.023070142811783
1.0965482741370685,1.0251186279855073
1.1102551275637818,1.02604909473336
1.123961980990495,1.025999025749728
1.1376688344172086,1.0244476190596943
1.1513756878439219,1.0216485972991274
1.1650825412706352,1.0194635686376843
1.1787893946973487,1.0150488639879969
1.192496248124062,1.0103916653284235
1.2062031015507753,1.006717451614905
1.2199099549774886,1.0013526758028177
1.233616808404202,0.9951166035089892
1.2473236618309154,0.9903168795425795
1.2610305152576287,0.9852651619955013
1.274737368684342,0.9826480951818267
1.2884442221110555,0.9786162131854655
1.3021510755377688,0.9767478480583217
1.315857928964482,0.9752863943682631
1.3295647823911956,0.9733022165965233
1.3432716358179089,0.9745206900041989
1.3569784892446222,0.976429233460633
1.3706853426713355,0.9798225409944618
1.384392196098049,0.9818213820777362
1.3980990495247623,0.9860535841520236
1.4118059029514756,0.9900915653180172
1.4255127563781889,0.9946676489780536
1.4392196098049024,1.0002309714395639
1.4529264632316157,1.0060388517998875
1.466633316658329,1.0105469971905015
1.4803401700850425,1.0143258028105675
1.4940470235117558,1.0181036604552414
1.507753876938469,1.0216123024952726
1.5214607303651824,1.0244534217963164
1.5351675837918959,1.0258144558120519
1.5488744372186092,1.0248792858621987
1.5625812906453225,1.0253242060378673
1.5762881440720358,1.0238714176415606
1.5899949974987493,1.020192412294712
1.6037018509254626,1.0169271691796167
1.6174087043521759,1.0125129737647431
1.6311155577788894,1.0076671569349542
1.6448224112056027,1.0027552917234694
1.658529264632316,0.9980799616620473
1.6722361180590293,0.9932067625578233
1.6859429714857428,0.9867182968011742
1.699649824912456,0.9847249783407512
1.7133566783391694,0.9801166512042992
1.7270635317658827,0.9766878549971928
1.7407703851925962,0.9747932799999688
1.7544772386193095,0.9738556720803578
1.7681840920460228,0.9749651288987954
1.7818909454727363,0.9759523635814414
1.7955977988994496,0.9783316060298165
1.8093046523261629,0.9792715663810001
1.8230115057528762,0.9835182396525229
1.8367183591795897,0.9869729071400187
1.850425212606303,0.9931398887011532
1.8641320660330163,0.9977408345620232
1.8778389194597296,1.0026431384609695
1.891545772886443,1.0081842639042577
1.9052526263131564,1.0138460083572827
1.9189594797398697,1.0167287608130697
1.9326663331665832,1.0198542440621394
1.9463731865932965,1.0230019218471802
1.9600800400200098,1.0254804948227267
1.973786893446723,1.0255668107035123
1.9874937468734366,1.0255024386398146
2.00120060030015,1.0243249341939389
2.014907453726863,1.0232615419768682
2.0286143071535765,1.0190888502641886
2.04232116058029,1.014972312044181
2.0560280140070035,1.0105329843910615
2.069734867433717,1.0052868429909392
2.08344172086043,1.0008425799722345
2.0971485742871434,0.9959360949286727
2.1108554277138567,0.9906291116786289
2.12456228114057,0.9860062573823778
2.1382691345672833,0.9823782101299148
2.1519759879939966,0.9790084639532505
2.1656828414207103,0.9775706050395951
2.1793896948474236,0.974173753636403
2.193096548274137,0.9745083673859819
2.20680340170085,0.9748705822958407
2.2205102551275635,0.9767220605888844
2.234217108554277,0.9792220770089434
2.24792396198099,0.9819867073675735
2.261630815407704,0.9856108477968063
2.275337668834417,0.9904689051398964
2.2890445222611304,0.9951485877793204
2.3027513756878437,0.999894747407826
2.316458229114557,1.0065195161782834
2.3301650825412703,1.0111346972968092
2.3438719359679836,1.0154625873270149
2.3575787893946973,1.0189271666566637
2.3712856428214106,1.0222914048290361
2.384992496248124,1.0250426860931625
2.3986993496748372,1.0255482612884497
2.4124062031015505,1.0254793786558343
2.426113056528264,1.0251558081500267
2.439819909954977,1.0225821599865224
2.4535267633816904,1.0200109782364353
2.467233616808404,1.017210552316474
2.4809404702351174,1.0129782478453262
2.4946473236618307,1.0080885721337598
2.508354177088544,1.0031183727091282
2.5220610305152573,0.997887149579153
2.5357678839419706,0.9931900813365454
2.549474737368684,0.988417486742194
2.5631815907953976,0.9844456242999664
2.576888444222111,0.9811661679469508
2.5905952976488242,0.9784740008676239
2.6043021510755375,0.9765648185403055
2.618009004502251,0.9742683618785537
2.631715857928964,0.9745106579654507
2.6454227113556774,0.9753117046902214
2.659129564782391,0.9769579487065604
2.6728364182091044,0.9794498505745597
2.6865432716358177,0.9840301145691038
2.700250125062531,0.9888575862640968
2.7139569784892443,0.9929713156470837
2.7276638319159576,0.9985691756931968
2.741370685342671,1.0025624668496396
2.755077538769384,1.007568451498665
2.768784392196098,1.0123177085957629
2.7824912456228112,1.0161713587715755
2.7961980990495245,1.0200805846469265
2.809904952476238,1.0222747929181255
2.823611805902951,1.024598006381599
2.8373186593296644,1.0254697816468306
2.8510255127563777,1.0250228377009565
2.8647323661830915,1.024272660710876
2.8784392196098048,1.0222240350719995
2.892146073036518,1.0184879882050373
2.9058529264632313,1.0147108073765065
2.9195597798899446,1.0108997368638926
2.933266633316658,1.00654243682981
2.9469734867433712,1.0003022638022254
2.960680340170085,0.9955959053652317
2.9743871935967983,0.9913912078248045
2.9880940470235116,0.9870413406906011
3.001800900450225,0.9812285972085643
3.015507753876938,0.978837674839342
3.0292146073036514,0.9764688691058475
3.0429214607303647,0.974919258898858
3.056628314157078,0.9748115285941875
3.0703351675837918,0.9752267026542859
3.084042021010505,0.9762858142112286
3.0977488744372184,0.9799313776526785
3.1114557278639317,0.9820930073576548
3.125162581290645,0.9864953374939643
3.1388694347173582,0.991315322373603
3.1525762881440715,0.9950935754675034
3.1662831415707853,1.0001875670790132
3.1799899949974986,1.0055114993848708
3.193696848424212,1.0103413319745722
3.207403701850925,1.0141039888740655
3.2211105552776385,1.017649569214438
3.2348174087043517,1.021571902611859
3.248524262131065,1.0241942639282156
3.262231115557779,1.02560834742599
3.275937968984492,1.0247998885284872
3.2896448224112054,1.02378185446232
3.3033516758379187,1.023441277418151
3.317058529264632,1.0200672319792452
3.3307653826913453,1.016166053831573
3.3444722361180586,1.0132599654876098
3.358179089544772,1.0081040662785532
3.3718859429714856,1.0030589719148368
3.385592796398199,0.9984697885212328
3.399299649824912,0.9933641194602862
3.4130065032516255,0.9886172991618685
3.4267133566783388,0.9848524863403487
3.440420210105052,0.9812808238287138
3.4541270635317654,0.9761845975862632
3.467833916958479,0.9756115897928728
3.4815407703851924,0.9746568600425194
3.4952476238119057,0.974971077192775
3.508954477238619,0.9751188653591764
3.5226613306653323,0.9767178367889863
3.5363681840920456,0.9806238749335441
3.550075037518759,0.9851932308302477
3.5637818909454726,0.9884821150590796
3.577488744372186,0.9930997000513027
3.591195597798899,0.9973801652494225
3.6049024512256125,1.002055960356843
3.6186093046523258,1.0084162723653611
3.632316158079039,1.0118140851575994
3.6460230115057524,1.0176963305613476
3.659729864932466,1.020502064194821
3.6734367183591794,1.0242918741907152
3.6871435717858927,1.0242252143411656
3.700850425212606,1.0261761262888964
3.7145572786393193,1.0256509448166227
3.7282641320660326,1.0238928989609313
3.741970985492746,1.0224887216620542
3.755677838919459,1.0184039212715035
3.769384692346173,1.014623370721255
3.783091545772886,1.0111388665543801
3.7967983991995995,1.0055609914738013
3.810505252626313,1.000408138019654
3.824212106053026,0.995531025170997
3.8379189594797394,0.9903163286354708
3.8516258129064527,0.986130984620877
3.8653326663331664,0.9817789963483813
3.8790395197598797,0.9796931204197229
3.892746373186593,0.97660524107813
3.9064532266133063,0.9740728052922388
3.9201600800400196,0.9747348802164844
3.933866933466733,0.9743198098649118
3.947573786893446,0.9760639909414192
3.96128064032016,0.9781437337401079
3.974987493746873,0.981186196387598
3.9886943471735865,0.9862130208387195
4.0024012006003,0.9902396966131615
4.016108054027013,0.9950179920618165
4.029814907453726,1.0004990650724053
4.04352176088044,1.0064975374337615
4.057228614307153,1.010204747202509
4.070935467733866,1.0137426894067743
4.08464232116058,1.0180324584603893
4.098349174587293,1.021728222534623
4.112056028014007,1.0231296515102877
4.12576288144072,1.025240700153628
4.139469734867434,1.0239365675213232
4.153176588294147,1.0243052742501297
4.16688344172086,1.0240490732473664
4.1805902951475735,1.020501610198165
4.194297148574287,1.0169040142028059
4.208004002001,1.012992818577605
4.221710855427713,1.0086644733063943
4.235417708854427,1.0037270060341792
4.24912456228114,0.9972996678532758
4.262831415707853,0.9923503543969691
4.276538269134567,0.9888674957013965
4.29024512256128,0.9856277609915073
4.303951975987993,0.9803082206666077
4.317658829414707,0.9774340456909364
4.331365682841421,0.9746784956959302
4.345072536268134,0.9744854274707627
4.358779389694847,0.9743840528680374
4.3724862431215605,0.9740770419063683
4.386193096548274,0.9770339075607112
4.399899949974987,0.9797399762353248
4.4136068034017,0.9836019676147293
4.427313656828414,0.9869899381786192
4.441020510255127,0.9930292272920799
4.45472736368184,0.9978177426495413
4.468434217108554,1.0030949962034068
4.482141070535267,1.0080663341016034
4.49584792396198,1.0125010265287355
4.5095547773886935,1.0157612096596735
4.523261630815408,1.0190348071464248
4.536968484242121,1.021887134119447
4.550675337668834,1.024525609334771
4.5643821910955475,1.0267606070899649
4.578089044522261,1.026057055248047
4.591795897948974,1.0248609531805122
4.605502751375687,1.0213926909628055
4.619209604802401,1.0198612468776027
4.632916458229114,1.0141862253125096
4.646623311655827,1.0108205614939607
4.660330165082541,1.0063312906010735
4.674037018509254,1.0011487290456222
4.687743871935967,0.995401484173593
4.7014507253626805,0.9915633205905044
4.715157578789395,0.9858633172337027
4.728864432216108,0.9829464846681105
4.742571285642821,0.9782806904333761
4.756278139069535,0.9766408237276483
4.769984992496248,0.9746135656143815
4.783691845922961,0.9740408295381012
4.7973986993496744,0.974337670097629
4.811105552776388,0.9769823732162769
4.824812406203101,0.9786248885978073
4.838519259629814,0.9826299166631742
4.852226113056528,0.985911428271545
4.865932966483241,0.9903620088163542
4.879639819909954,0.9947847916155903
4.8933466733366675,1.0007156550089777
4.907053526763381,1.0045479267252937
4.920760380190095,1.010555239044627
4.934467233616808,1.0149352892937342
4.948174087043522,1.0182657466103784
4.961880940470235,1.0217645035738903
4.975587793896948,1.0237069869806081
4.9892946473236615,1.0255832878761362
5.003001500750375,1.0259357559773568
5.016708354177088,1.0260186235966129
5.030415207603801,1.0228501896964382
5.044122061030515,1.020620629638228
5.057828914457228,1.0164673064942291
5.071535767883941,1.0132628982423248
5.0852426213106545,1.0079863483022413
5.098949474737368,1.003182555898074
5.112656328164081,0.9979235416746801
5.126363181590795,0.9932607906354456
5.140070035017509,0.9876237532537947
5.153776888444222,0.9848812037001277
5.167483741870935,0.9804439368075525
5.1811905952976485,0.9786776612946358
5.194897448724362,0.9757224704119013
5.208604302151075,0.9745659669182895
5.222311155577788,0.9753175534582802
5.236018009004502,0.9760977272929753
5.249724862431215,0.9772504092759824
5.263431715857928,0.9804727504197007
5.2771385692846415,0.9839359618580021
5.290845422711355,0.9888491508712809
5.304552276138068,0.9917352414745797
5.318259129564782,0.9968612988437782
5.331965982991496,1.002817826229584
5.345672836418209,1.007796465512707
5.359379689844922,1.0131124380600194
5.3730865432716355,1.0166319810844742
5.386793396698349,1.0202406300979745
5.400500250125062,1.0237520986583977
5.414207103551775,1.0250732958220719
5.427913956978489,1.0253271991121933
5.441620810405202,1.0246046950798373
5.455327663831915,1.023048104522816
5.4690345172586285,1.0230387544126878
5.482741370685342,1.0181232762168557
5.496448224112055,1.0150678887427624
5.510155077538768,1.0121497946115334
5.523861930965483,1.006009687744089
5.537568784392196,1.0018280720912556
5.551275637818909,0.9948987921462916
5.5649824912456225,0.9910369818943343
5.578689344672336,0.9868277862596313
5.592396198099049,0.9825367323171618
5.606103051525762,0.9778791392822014
5.619809904952476,0.9768013709362489
5.633516758379189,0.9745364192282376
5.647223611805902,0.9748207623254903
5.660930465232616,0.9746451969610124
5.674637318659329,0.9756214298878753
5.688344172086042,0.9772852059531035
5.7020510255127554,0.9820704299016981
5.71575787893947,0.9856479836303893
5.729464732366183,0.9908106023559622
5.743171585792896,0.9953806795663438
5.7568784392196095,1.000667701847449
5.770585292646323,1.004360537224345
5.784292146073036,1.0096102486074832
5.797998999499749,1.014895411986697
5.811705852926463,1.019433841544741
5.825412706353176,1.0207050323103564
5.839119559779889,1.0241752285420083
5.852826413206603,1.0247891686764428
5.866533266633316,1.0252276831298965
5.880240120060029,1.0248738393967143
5.8939469734867425,1.0232208236015807
5.907653826913456,1.0209153394066117
5.92136068034017,1.017363092727167
5.935067533766883,1.0130947838669153
5.9487743871935965,1.0083767739108815
5.96248124062031,1.002416351636428
5.976188094047023,0.9978553313834979
5.989894947473736,0.9920872689403273
6.00360180090045,0.988453177813395
6.017308654327163,0.9850609040367332
6.031015507753876,0.9805703107966433
6.04472236118059,0.9769356950133248
6.058429214607303,0.9756941681177941
6.072136068034016,0.9748265615810194
6.0858429214607295,0.9738204731614915
6.099549774887443,0.9755279983384143
6.113256628314156,0.9772003638495481
6.12696348174087,0.9798560281500917
6.1406703351675835,0.9831685423999347
6.154377188594297,0.987128645951407
6.16808404202101,0.9922969170504427
6.181790895447723,0.9989935146971165
6.195497748874437,1.0029842368013138
6.20920460230115,1.0075059237847026
6.222911455727863,1.0124842693910574
6.236618309154577,1.0175206082523092
6.25032516258129,1.020134249849578
6.264032016008003,1.0230542703798826
6.2777388694347165,1.0244253395761784
6.29144572286143,1.0254656302573246
6.305152576288143,1.025833803052141
6.318859429714857,1.0245381902096795
6.3325662831415706,1.0218122895919224
6.346273136568284,1.0184406153380945
6.359979989994997,1.01430967206856
6.37368684342171,1.0106177216599037
6.387393696848424,1.0062490616267235
6.401100550275137,1.0004993277330967
6.41480740370185,0.9965979289474991
6.428514257128564,0.9906197086983949
6.442221110555277,0.9856585594537964
6.45592796398199,0.9820601335995113
6.4696348174087035,0.9795455078267111
6.483341670835417,0.9766181497266034
6.49704852426213,0.9748877656451571
6.510755377688843,0.9732895079581835
6.524462231115558,0.9748283913586371
6.538169084542271,0.9754073464416737
6.551875937968984,0.9785538422810226
6.5655827913956974,0.982434547094869
6.579289644822411,0.9854312153730606
6.592996498249124,0.9896298294806665
6.606703351675837,0.9958929160747574
6.620410205102551,1.0002092220720986
6.634117058529264,1.0060028090535766
6.647823911955977,1.0095035061008386
6.6615307653826905,1.013659006691369
6.675237618809404,1.0183129925053123
6.688944472236117,1.0214024450648589
6.70265132566283,1.0241042785496768
6.716358179089544,1.0253259144382596
6.730065032516258,1.0254859061060502
6.743771885942971,1.0245384389131096
6.7574787393696845,1.0238121645535023
6.771185592796398,1.0211701010072145
6.784892446223111,1.0174665559708704
6.798599299649824,1.0132146340647474
6.812306153076538,1.00766006778031
6.826013006503251,1.002941526635411
6.839719859929964,0.9987006591547302
6.8534267133566775,0.9935389919473366
6.867133566783391,0.9882675034225823
6.880840420210104,0.9839747530297194
6.894547273636817,0.9807905357831411
6.908254127063531,0.9767478717117979
6.921960980490245,0.9746208908565279
6.935667833916958,0.9742128337397856
6.9493746873436715,0.9746305039139751
6.963081540770385,0.9749384787147053
6.976788394197098,0.9770948511010494
6.990495247623811,0.9804846286470554
7.004202101050525,0.9833751711731161
7.017908954477238,0.9879246920710664
7.031615807903951,0.992204254280052
7.0453226613306645,0.9977329849161998
7.059029514757378,1.0024587336787898
7.072736368184091,1.008680499634018
7.086443221610804,1.0120656582043868
7.100150075037518,1.0168057657106178
7.113856928464231,1.0193031880951426
7.127563781890945,1.022876648444612
7.1412706353176585,1.0246601041750245
7.154977488744372,1.0249007596200312
7.168684342171085,1.0246397079676495
7.182391195597798,1.0243850468347817
7.196098049024512,1.022070916740826
7.209804902451225,1.018281718137226
7.223511755877938,1.015610285222634
7.2372186093046516,1.0106010071050824
7.250925462731365,1.0060873822544958
7.264632316158078,1.0010367060365577
7.278339169584791,0.9961327283410061
7.292046023011505,0.9909277563506212
7.305752876438218,0.9863241118290422
7.319459729864932,0.9812985372485612
7.3331665832916455,0.9787066788052575
7.346873436718359,0.9757850291505504
