time,flux
0.0,1.0286303355598654
0.013706853426713355,1.0219818709318984
0.02741370685342671,1.0201466843546951
0.041120560280140064,1.0149891508804683
0.05482741370685342,1.0090346795720155
0.06853426713356678,1.0031852603607414
0.08224112056028013,0.999082103851833
0.09594797398699349,0.9928484744123575
0.10965482741370684,0.9867803694979371
0.1233616808404202,0.9815372056924152
0.13706853426713356,0.9797906714848844
0.1507753876938469,0.9751622057304073
0.16448224112056026,0.9708561219554029
0.1781890945472736,0.9716758316214008
0.19189594797398699,0.9684432009198342
0.20560280140070034,0.9685738846983991
0.21930965482741369,0.9699327736772242
0.23301650825412704,0.9693817374377581
0.2467233616808404,0.9699571372805157
0.26043021510755376,0.974521708817102
0.2741370685342671,0.9772691270312241
0.28784392196098046,0.9808593971099209
0.3015507753876938,0.984632792836081
0.31525762881440716,0.9887302286815131
0.3289644822411205,0.9936138779876139
0.34267133566783387,0.9982544779694479
0.3563781890945472,1.005101771806304
0.3700850425212606,1.0100836997516414
0.38379189594797397,1.0133806984754843
0.3974987493746873,1.0188601304371727
0.41120560280140067,1.019567624018658
0.424912456228114,1.0230907559722218
0.43861930965482737,1.0255538554815957
0.4523261630815407,1.0261964495588312
0.46603301650825407,1.0295660962401123
0.4797398699349674,1.0248677507437456
0.4934467233616808,1.0271316614462827
0.5071535767883941,1.025766584645596
0.5208604302151075,1.0219708990806833
0.5345672836418208,1.0222970686343844
0.5482741370685342,1.0169072822074687
0.5619809904952475,1.015299795624547
0.5756878439219609,1.0071419713817817
0.5893946973486743,1.0041901077528241
0.6031015507753876,1.0023457894337757
0.616808404202101,0.9961782342004982
0.6305152576288143,0.9936347640423037
0.6442221110555277,0.989888918256601
0.657928964482241,0.98471391631907
0.6716358179089544,0.9827870542846867
0.6853426713356677,0.9811938179333384
0.6990495247623811,0.9805534503219153
0.7127563781890944,0.9764851445582335
0.7264632316158078,0.9794787459989258
0.7401700850425212,0.9791139649486333
0.7538769384692345,0.9788516495089767
0.7675837918959479,0.9801708974675455
0.7812906453226612,0.9826779129185168
0.7949974987493746,0.9835616721887186
0.8087043521760879,0.9879472149101237
0.8224112056028013,0.9901339230999331
0.8361180590295146,0.993102153591217
0.849824912456228,0.9964122511477291
0.8635317658829413,1.0013453393017648
0.8772386193096547,1.00375875536856
0.8909454727363681,1.0091194191093185
0.9046523261630814,1.0102397477397944
0.9183591795897948,1.0118281205435717
0.9320660330165081,1.0119038315006625
0.9457728864432215,1.0147706732219992
0.9594797398699348,1.0155943823057296
0.9731865932966483,1.0175767783989906
0.9868934467233615,1.0161825869205632
1.000600300150075,1.015349808531428
1.0143071535767882,1.0151200668590377
1.0280140070035018,1.0141851789988383
1.041720860430215,1.0112338294353695
1.0554277138569284,1.008496264361087
1.0691345672836416,1.0063286105229028
1.0828414207103552,1.00398148766676
1.0965482741370685,1.0009452533567975
1.1102551275637818,0.9964402193648114
1.123961980990495,0.9938098297548756
1.1376688344172086,0.9922412265178306
1.1513756878439219,0.9912237331499637
1.1650825412706352,0.9877178252680628
1.1787893946973487,0.9873696789012603
1.192496248124062,0.9886352335119327
1.2062031015507753,0.9859091218021848
1.2199099549774886,0.9883038870721261
1.233616808404202,0.9869083414672413
1.2473236618309154,0.9855307949729715
1.2610305152576287,0.9892369188723937
1.274737368684342,0.9906602670257053
1.2884442221110555,0.9912581849483715
1.3021510755377688,0.9951910556378998
1.315857928964482,0.997657659142025
1.3295647823911956,0.9996049813618302
1.3432716358179089,1.0019205948940588
1.3569784892446222,1.006071662288187
1.3706853426713355,1.0063540334679055
1.384392196098049,1.0074300860573997
1.3980990495247623,1.0099552619906473
1.4118059029514756,1.0125374001870207
1.4255127563781889,1.0139125838862684
1.4392196098049024,1.013961707143396
1.4529264632316157,1.0124252936407347
1.466633316658329,1.0143297321824232
1.4803401700850425,1.0116778908141257
1.4940470235117558,1.0119891277413666
1.507753876938469,1.008497197328247
1.5214607303651824,1.0067660682716957
1.5351675837918959,1.0061449698995348
1.5488744372186092,1.00102725737207
1.5625812906453225,0.9978825457102267
1.5762881440720358,0.9974893010508674
1.5899949974987493,0.9931394872454781
1.6037018509254626,0.993496866077227
1.6174087043521759,0.9871575016671538
1.6311155577788894,0.9873310265751247
1.6448224112056027,0.9854015233122984
1.658529264632316,0.9855079766795327
1.6722361180590293,0.9840734718664275
1.6859429714857428,0.9833030627493172
1.699649824912456,0.9826033108530319
1.7133566783391694,0.9838545254980943
1.7270635317658827,0.9851244663342655
1.7407703851925962,0.9836488295256693
1.7544772386193095,0.9908366635997876
1.7681840920460228,0.9917532668730232
1.7818909454727363,0.9947664307707504
1.7955977988994496,0.9961557550599791
1.8093046523261629,1.0014129912711789
1.8230115057528762,1.0047000072404906
1.8367183591795897,1.0054934089628056
1.850425212606303,1.0102715276634673
1.8641320660330163,1.011873111078942
1.8778389194597296,1.0167954573935525
1.891545772886443,1.0178986694107908
1.9052526263131564,1.021865906653127
1.9189594797398697,1.0215960746989083
1.9326663331665832,1.0227127589074203
1.9463731865932965,1.0237305719466308
1.9600800400200098,1.0223597842605476
1.973786893446723,1.017857309715007
1.9874937468734366,1.019579425625418
2.00120060030015,1.0154063143007774
2.014907453726863,1.0117628567723558
2.0286143071535765,1.0081268618321702
2.04232116058029,1.004994527275681
2.0560280140070035,1.0026263856301971
2.069734867433717,0.9965288036260268
2.08344172086043,0.9911346695731067
2.0971485742871434,0.9870201283193458
2.1108554277138567,0.9839016236985375
2.12456228114057,0.9781629249645327
2.1382691345672833,0.9769445302973729
2.1519759879939966,0.9759632770260025
2.1656828414207103,0.9749413671979713
2.1793896948474236,0.9733731541828453
2.193096548274137,0.9708744049953192
2.20680340170085,0.9742720112602258
2.2205102551275635,0.9748933975607943
2.234217108554277,0.9760400679019187
2.24792396198099,0.9788774892905404
2.261630815407704,0.9810260181424103
2.275337668834417,0.9866155605960139
2.2890445222611304,0.9901012024007566
2.3027513756878437,0.9945579567489898
2.316458229114557,0.9989251007982265
2.3301650825412703,1.0064596898423945
2.3438719359679836,1.0082543801842023
2.3575787893946973,1.0130937249316323
2.3712856428214106,1.0173110913041548
2.384992496248124,1.0219125943574783
2.3986993496748372,1.0264937694398166
2.4124062031015505,1.0278349552755912
2.426113056528264,1.0301985617357863
2.439819909954977,1.0334671272264955
2.4535267633816904,1.032230387013537
2.467233616808404,1.031537638026757
2.4809404702351174,1.0318866031444511
2.4946473236618307,1.0298739222207673
2.508354177088544,1.0271562149489297
2.5220610305152573,1.0233617754722137
2.5357678839419706,1.0165078802214553
2.549474737368684,1.0139124117962328
2.5631815907953976,1.007951349400728
2.576888444222111,1.0035704753119359
2.5905952976488242,0.9952184404039255
2.6043021510755375,0.9903781254097243
2.618009004502251,0.9864171551579798
2.631715857928964,0.9810882509433257
2.6454227113556774,0.9765737904655211
2.659129564782391,0.9724719596490922
2.6728364182091044,0.968742252823557
2.6865432716358177,0.9680983269641148
2.700250125062531,0.9638600908626135
2.7139569784892443,0.9641516387365556
2.7276638319159576,0.9632893931616758
2.741370685342671,0.9653345035476523
2.755077538769384,0.969044403596093
2.768784392196098,0.9697739770813874
2.7824912456228112,0.9750398995306103
2.7961980990495245,0.977669972588615
2.809904952476238,0.9844520254940526
2.823611805902951,0.9900748460754767
2.8373186593296644,0.9954224061179804
2.8510255127563777,1.0013390850461537
2.8647323661830915,1.0059920484199707
2.8784392196098048,1.012245604305321
2.892146073036518,1.0153834753485722
2.9058529264632313,1.0226721398741077
2.9195597798899446,1.028744660595013
2.933266633316658,1.033535635689753
2.9469734867433712,1.0342054979423119
2.960680340170085,1.0375165603662586
2.9743871935967983,1.0367801122775335
2.9880940470235116,1.0377765947521271
3.001800900450225,1.0380748442545675
3.015507753876938,1.0338814014709468
3.0292146073036514,1.0330292752119037
3.0429214607303647,1.0288179093001875
3.056628314157078,1.0256131162448354
3.0703351675837918,1.0215012622817041
3.084042021010505,1.0168234432157293
3.0977488744372184,1.01008516178018
3.1114557278639317,1.0016008809702197
3.125162581290645,0.9962816309796256
3.1388694347173582,0.9903017275154573
3.1525762881440715,0.9854555778131121
3.1662831415707853,0.9803964497570439
3.1799899949974986,0.9736080366916071
3.193696848424212,0.9692520661658914
3.207403701850925,0.9659954304601824
3.2211105552776385,0.9642208818262771
3.2348174087043517,0.96196985804532
3.248524262131065,0.9607306829212218
3.262231115557779,0.9616594280166221
3.275937968984492,0.9619292295047224
3.2896448224112054,0.9628951941923736
3.3033516758379187,0.9678695942765767
3.317058529264632,0.9716724683892511
3.3307653826913453,0.9775483092173471
3.3444722361180586,0.9815994633735109
3.358179089544772,0.9888430075293199
3.3718859429714856,0.9923083605591844
3.385592796398199,0.9984239076765888
3.399299649824912,1.0062785882477683
3.4130065032516255,1.0110498254330047
3.4267133566783388,1.0157351042783382
3.440420210105052,1.023349381590374
3.4541270635317654,1.0257303834438047
3.467833916958479,1.030268494079565
3.4815407703851924,1.0352610766591914
3.4952476238119057,1.035206900947186
3.508954477238619,1.0368679425047407
3.5226613306653323,1.0371091282752276
3.5363681840920456,1.0353953864866083
3.550075037518759,1.0359724426945083
3.5637818909454726,1.0315822357677762
3.577488744372186,1.0300199050974488
3.591195597798899,1.0255059360178376
3.6049024512256125,1.0215822192887245
3.6186093046523258,1.015331471950403
3.632316158079039,1.009600839669389
3.6460230115057524,1.0054429951499522
3.659729864932466,0.9989174262739977
3.6734367183591794,0.9936834265216934
3.6871435717858927,0.986383209958098
3.700850425212606,0.9818323517340551
3.7145572786393193,0.974896446482322
3.7282641320660326,0.9735662572231012
3.741970985492746,0.9685606526052175
3.755677838919459,0.9663007115890334
3.769384692346173,0.9640704217680426
3.783091545772886,0.9634415234112316
3.7967983991995995,0.9662282741865347
3.810505252626313,0.9631794314932006
3.824212106053026,0.9673663532612827
3.8379189594797394,0.9726053988001052
3.8516258129064527,0.9758529829276475
3.8653326663331664,0.9796080425294388
3.8790395197598797,0.984493542054867
3.892746373186593,0.9887447770517831
3.9064532266133063,0.993947053168357
3.9201600800400196,1.000629867205428
3.933866933466733,1.0051985398526293
3.947573786893446,1.0090580247182428
3.96128064032016,1.0140781226928688
3.974987493746873,1.0178728241564032
3.9886943471735865,1.0213291721862796
4.0024012006003,1.026687866452395
4.016108054027013,1.02736766425638
4.029814907453726,1.029831214642423
4.04352176088044,1.0312033462372532
4.057228614307153,1.03196449862717
4.070935467733866,1.0295737747839342
4.08464232116058,1.0295323038315136
4.098349174587293,1.0259981319652423
4.112056028014007,1.0215453443480491
4.12576288144072,1.0192437373904493
4.139469734867434,1.0136077345636474
4.153176588294147,1.008477635374705
4.16688344172086,1.0055786578392423
4.1805902951475735,1.0002524780385158
4.194297148574287,0.9964966467799938
4.208004002001,0.9937819461483244
4.221710855427713,0.987585633325156
4.235417708854427,0.983644747259608
4.24912456228114,0.9797384978307302
4.262831415707853,0.9776902982176554
4.276538269134567,0.976563494966065
4.29024512256128,0.9743325386763302
4.303951975987993,0.9744116211706615
4.317658829414707,0.9744825159347671
4.331365682841421,0.9742691446596404
4.345072536268134,0.9778890445987454
4.358779389694847,0.9794436343442989
4.3724862431215605,0.9806416478945906
4.386193096548274,0.983963357774529
4.399899949974987,0.9894062754722647
4.4136068034017,0.991196193219779
4.427313656828414,0.9970877247161456
4.441020510255127,0.9992346409180513
4.45472736368184,1.0030397267594673
4.468434217108554,1.005557530097987
4.482141070535267,1.009291084335546
4.49584792396198,1.0126960134770138
4.5095547773886935,1.0138394605566954
4.523261630815408,1.0165635241213513
4.536968484242121,1.0173809195045156
4.550675337668834,1.018281606931391
4.5643821910955475,1.021053059052265
4.578089044522261,1.0200283200096267
4.591795897948974,1.018264199858501
4.605502751375687,1.0156671581965877
4.619209604802401,1.0167423445205193
4.632916458229114,1.0126782696167953
4.646623311655827,1.013784770637544
4.660330165082541,1.0103539073757548
4.674037018509254,1.00424117319914
4.687743871935967,1.0018060816915328
4.7014507253626805,0.9993102100901139
4.715157578789395,0.9947844056097583
4.728864432216108,0.991384147667448
4.742571285642821,0.9915204494830164
4.756278139069535,0.9890840975785332
4.769984992496248,0.986588333561456
4.783691845922961,0.9844329727128731
4.7973986993496744,0.9848279443088382
4.811105552776388,0.9828017818132001
4.824812406203101,0.9831163140780008
4.838519259629814,0.9834651326730675
4.852226113056528,0.986499430440567
4.865932966483241,0.9887953290701971
4.879639819909954,0.9898387712464812
4.8933466733366675,0.9852538821707242
4.907053526763381,0.9973896138852385
4.920760380190095,0.9976951396502406
4.934467233616808,1.0017082459955786
4.948174087043522,1.0022645437633626
4.961880940470235,1.0070019901087635
4.975587793896948,1.007362067789667
4.9892946473236615,1.0082751488510249
5.003001500750375,1.0099645775203536
5.016708354177088,1.0124569718390268
5.030415207603801,1.0149081448698627
5.044122061030515,1.0139322589720126
5.057828914457228,1.0152151131159843
5.071535767883941,1.0120758944659691
5.0852426213106545,1.0109934251813357
5.098949474737368,1.0113425995613152
5.112656328164081,1.0085540736879266
5.126363181590795,1.0065693102422248
5.140070035017509,1.0034369708785305
5.153776888444222,1.0005581595248898
5.167483741870935,0.9986345998936552
5.1811905952976485,0.997885528242008
5.194897448724362,0.9953100010143664
5.208604302151075,0.9880611493566241
5.222311155577788,0.9891315621106905
5.236018009004502,0.9877876975025537
5.249724862431215,0.9897165890415965
5.263431715857928,0.9857595526438837
5.2771385692846415,0.9849835537231729
5.290845422711355,0.9846465362524973
5.304552276138068,0.9861241473114707
5.318259129564782,0.9875542422655649
5.331965982991496,0.989741120442157
5.345672836418209,0.9905465688883279
5.359379689844922,0.9938552398921757
5.3730865432716355,0.9951340016581819
5.386793396698349,0.9987733759607015
5.400500250125062,1.0027708797740331
5.414207103551775,1.0048098590947763
5.427913956978489,1.007045304045254
5.441620810405202,1.0095639141261683
5.455327663831915,1.012742509143916
5.4690345172586285,1.0158493116395602
5.482741370685342,1.0172155309938988
5.496448224112055,1.0174840437825328
5.510155077538768,1.020270568952409
5.523861930965483,1.0186032012263089
5.537568784392196,1.0191114588104553
5.551275637818909,1.0184895972678767
5.5649824912456225,1.0169054826557602
5.578689344672336,1.0131186378796666
5.592396198099049,1.0112425847403321
5.606103051525762,1.009686980057069
5.619809904952476,1.007677692432275
5.633516758379189,1.0044194839567824
5.647223611805902,0.9988961771297316
5.660930465232616,0.9934305123823067
5.674637318659329,0.9903654313527
5.688344172086042,0.9861232864671455
5.7020510255127554,0.9865451108597071
5.71575787893947,0.9823823794718554
5.729464732366183,0.9790811013952588
5.743171585792896,0.976747577547465
5.7568784392196095,0.974888531914691
5.770585292646323,0.9771105849283759
5.784292146073036,0.9753377272642402
5.797998999499749,0.9790732822908996
5.811705852926463,0.9782458116831262
5.825412706353176,0.9789506348990625
5.839119559779889,0.9815591298388132
5.852826413206603,0.9880987938226832
5.866533266633316,0.990867322450418
5.880240120060029,0.9943588977712049
5.8939469734867425,0.9982737619872144
5.907653826913456,1.0015563173097177
5.92136068034017,1.0072168881957235
5.935067533766883,1.0110432123788933
5.9487743871935965,1.0168384743364562
5.96248124062031,1.0192283464948453
5.976188094047023,1.023233562978507
5.989894947473736,1.0246695551529628
6.00360180090045,1.0292855347229257
6.017308654327163,1.0291208737121795
6.031015507753876,1.0294807364104843
6.04472236118059,1.0285048425953438
6.058429214607303,1.0302939700118272
6.072136068034016,1.0264126233285487
6.0858429214607295,1.0239666909804959
6.099549774887443,1.0203623256189105
6.113256628314156,1.0166823351904146
6.12696348174087,1.0124370081756755
6.1406703351675835,1.008751482962188
6.154377188594297,1.0034843685940396
6.16808404202101,0.9980659492243095
6.181790895447723,0.9909870907041511
6.195497748874437,0.9886005815462493
6.20920460230115,0.9831777555248992
6.222911455727863,0.977368313864008
6.236618309154577,0.9737436371078464
6.25032516258129,0.9690517498621944
6.264032016008003,0.971338375009732
6.2777388694347165,0.9666115701142053
6.29144572286143,0.9661454225187681
6.305152576288143,0.9645509950104214
6.318859429714857,0.9670607014263961
6.3325662831415706,0.9705795431168986
6.346273136568284,0.9718754520844928
6.359979989994997,0.9747583964916049
6.37368684342171,0.979506559365746
6.387393696848424,0.985819114296149
6.401100550275137,0.9908648767438772
6.41480740370185,0.994225547258691
6.428514257128564,1.0003109324829116
6.442221110555277,1.0081190680724819
6.45592796398199,1.013094455048554
6.4696348174087035,1.0183323117718843
6.483341670835417,1.0232011558025356
6.49704852426213,1.0263883322855447
6.510755377688843,1.0304366611348301
6.524462231115558,1.0322707989111013
6.538169084542271,1.0365284675483468
6.551875937968984,1.0360907330345055
6.5655827913956974,1.0394871054571226
6.579289644822411,1.0377782552261372
6.592996498249124,1.0326658504235322
6.606703351675837,1.033695177376616
6.620410205102551,1.0303819228868798
6.634117058529264,1.024599199135464
6.647823911955977,1.0205433487671522
6.6615307653826905,1.0142260255777429
6.675237618809404,1.0141688640166884
6.688944472236117,1.0031659296709166
6.70265132566283,0.99539419435914
6.716358179089544,0.9891712977196412
6.730065032516258,0.9847191473483207
6.743771885942971,0.9809119144914453
6.7574787393696845,0.9745608223472312
6.771185592796398,0.969246367722054
6.784892446223111,0.9654888485801159
6.798599299649824,0.9627171746638793
6.812306153076538,0.9604561314424261
6.826013006503251,0.9615306810554474
6.839719859929964,0.9595443309415329
6.8534267133566775,0.9644546546682196
6.867133566783391,0.9644243396955309
6.880840420210104,0.9666464719917648
6.894547273636817,0.9723054524457972
6.908254127063531,0.9753442810572115
6.921960980490245,0.9799431034722387
6.935667833916958,0.990171619429304
6.9493746873436715,0.994339154188802
6.963081540770385,1.0006926511256047
6.976788394197098,1.0065648578178072
6.990495247623811,1.0131338705333843
7.004202101050525,1.019240490376825
7.017908954477238,1.0224271607924058
7.031615807903951,1.0273673924758011
7.0453226613306645,1.0302980136743534
7.059029514757378,1.03607039489324
7.072736368184091,1.0375204689140733
7.086443221610804,1.0388184011796904
7.100150075037518,1.038704804307027
7.113856928464231,1.0367496617860639
7.127563781890945,1.0354602623716855
7.1412706353176585,1.0327207333599604
7.154977488744372,1.0269701117241472
7.168684342171085,1.0253811442282075
7.182391195597798,1.019858592903202
7.196098049024512,1.0140360678314015
7.209804902451225,1.0086392262323371
7.223511755877938,1.003167775568842
7.2372186093046516,0.9974743390276741
7.250925462731365,0.9917579928777853
7.264632316158078,0.9854502768060803
7.278339169584791,0.9778653873365739
7.292046023011505,0.972671210098222
7.305752876438218,0.9720671053928315
7.319459729864932,0.9666199662124458
7.3331665832916455,0.9649282771014649
7.346873436718359,0.9639022144238554
