time,flux
0.0,0.9465201354977715
0.013706853426713355,0.95084343560517
0.02741370685342671,0.9618409271212033
0.041120560280140064,0.9757160476049281
0.05482741370685342,0.9842382800013298
0.06853426713356678,1.0017072961125053
0.08224112056028013,1.0138688941839902
0.09594797398699349,1.0292554365341813
0.10965482741370684,1.0362357122728008
0.1233616808404202,1.048109337174646
0.13706853426713356,1.0554246285773752
0.1507753876938469,1.063013188732789
0.16448224112056026,1.065978908824066
0.1781890945472736,1.0615709507370044
0.19189594797398699,1.0589940216916747
0.20560280140070034,1.0492300848111644
0.21930965482741369,1.041275246400326
0.23301650825412704,1.0288656333783768
0.2467233616808404,1.016473009540019
0.26043021510755376,1.0010766666586164
0.2741370685342671,0.9900893408147222
0.28784392196098046,0.9764721678035783
0.3015507753876938,0.9607222248767235
0.31525762881440716,0.9516353473009193
0.3289644822411205,0.9423485033653116
0.34267133566783387,0.9387581938071881
0.3563781890945472,0.9352744083917038
0.3700850425212606,0.9331640643949694
0.38379189594797397,0.9380352877698453
0.3974987493746873,0.9416703818065845
0.41120560280140067,0.9551696019336756
0.424912456228114,0.9661580953913085
0.43861930965482737,0.9805885831903106
0.4523261630815407,0.9922294008538896
0.46603301650825407,1.0057997150568925
0.4797398699349674,1.0238834062550302
0.4934467233616808,1.0356781221396483
0.5071535767883941,1.0491609572994194
0.5208604302151075,1.0588338333616927
0.5345672836418208,1.0635142737570549
0.5482741370685342,1.0685208554962704
0.5619809904952475,1.0680361984343913
0.5756878439219609,1.0668196661866598
0.5893946973486743,1.0593602910925883
0.6031015507753876,1.051196687060094
0.616808404202101,1.0363352606769687
0.6305152576288143,1.0226602556542648
0.6442221110555277,1.0073386192900393
0.657928964482241,0.99588520943274
0.6716358179089544,0.9780609433699593
0.6853426713356677,0.9651576605875787
0.6990495247623811,0.9543466090530234
0.7127563781890944,0.9448724589725916
0.7264632316158078,0.9344017630972608
0.7401700850425212,0.9299954167339115
0.7538769384692345,0.9306968890956699
0.7675837918959479,0.9327459341462101
0.7812906453226612,0.93879185009043
0.7949974987493746,0.946083314402832
0.8087043521760879,0.9614685181008177
0.8224112056028013,0.9740391798720335
0.8361180590295146,0.9856024636242404
0.849824912456228,1.0015805698788995
0.8635317658829413,1.01927844222294
0.8772386193096547,1.0319285285545872
0.8909454727363681,1.0439687512691291
0.9046523261630814,1.0572419516408764
0.9183591795897948,1.0649981499633223
0.9320660330165081,1.0678680798396982
0.9457728864432215,1.069914684987265
0.9594797398699348,1.069676551893648
0.9731865932966483,1.0621778781424702
0.9868934467233615,1.0484588577644107
1.000600300150075,1.0442973646941862
1.0143071535767882,1.0328646089555673
1.0280140070035018,1.0172310146032326
1.041720860430215,1.0023408483873866
1.0554277138569284,0.9855721075321972
1.0691345672836416,0.9701946059178164
1.0828414207103552,0.9576148323236826
1.0965482741370685,0.9479179483345115
1.1102551275637818,0.9366731084014785
1.123961980990495,0.9332332440095525
1.1376688344172086,0.9301540175977584
1.1513756878439219,0.9301948022693406
1.1650825412706352,0.9326395981796627
1.1787893946973487,0.9415071300202764
1.192496248124062,0.9523718276465187
1.2062031015507753,0.9645736029812466
1.2199099549774886,0.9791305531966201
1.233616808404202,0.9944648159462649
1.2473236618309154,1.0118781495003568
1.2610305152576287,1.0281794767532038
1.274737368684342,1.0394169098461272
1.2884442221110555,1.0514648248562224
1.3021510755377688,1.0611558892000994
1.315857928964482,1.0676476783664106
1.3295647823911956,1.0694071280755721
1.3432716358179089,1.0714329328704633
1.3569784892446222,1.0659089680632658
1.3706853426713355,1.0603940986015852
1.384392196098049,1.0520038398107057
1.3980990495247623,1.039244965899127
1.4118059029514756,1.0235021381944456
1.4255127563781889,1.0097384570828445
1.4392196098049024,0.9923399747951062
1.4529264632316157,0.9791320164712405
1.466633316658329,0.9665531633945048
1.4803401700850425,0.9494426695711723
1.4940470235117558,0.9423952319940143
1.507753876938469,0.9361836921070646
1.5214607303651824,0.9304042447487233
1.5351675837918959,0.9292271247143797
1.5488744372186092,0.9326628202700222
1.5625812906453225,0.9401189420290085
1.5762881440720358,0.9497989968093224
1.5899949974987493,0.9573186016824938
1.6037018509254626,0.9721709152019898
1.6174087043521759,0.9887578721318937
1.6311155577788894,1.0024960061950077
1.6448224112056027,1.0181811702451817
1.658529264632316,1.031140732946774
1.6722361180590293,1.0436165164788205
1.6859429714857428,1.0531659983684647
1.699649824912456,1.0607995401839807
1.7133566783391694,1.0670021217446968
1.7270635317658827,1.0693342721937917
1.7407703851925962,1.064088036334391
1.7544772386193095,1.0637561886135745
1.7681840920460228,1.051123268636517
1.7818909454727363,1.0448071720790406
1.7955977988994496,1.041754384389683
1.8093046523261629,1.014721583468636
1.8230115057528762,1.0010339564915807
1.8367183591795897,0.9862400031882688
1.850425212606303,0.9712517044912056
1.8641320660330163,0.9575383069220127
1.8778389194597296,0.9483533673839326
1.891545772886443,0.9409771106611196
1.9052526263131564,0.9367387350140134
1.9189594797398697,0.9319659135863819
1.9326663331665832,0.937748110304929
1.9463731865932965,0.9381297268199927
1.9600800400200098,0.9452878804672303
1.973786893446723,0.9555054620232261
1.9874937468734366,0.9665320415227165
2.00120060030015,0.9810130173332444
2.014907453726863,0.9951991037370915
2.0286143071535765,1.0098006586647121
2.04232116058029,1.0231289721929726
2.0560280140070035,1.0356705187768425
2.069734867433717,1.046471890512003
2.08344172086043,1.0541997080760426
2.0971485742871434,1.0585767933766372
2.1108554277138567,1.0635378616802038
2.12456228114057,1.0664729820135566
2.1382691345672833,1.06124039185406
2.1519759879939966,1.0528018328109656
2.1656828414207103,1.0459908791127364
2.1793896948474236,1.0343153297503036
2.193096548274137,1.0201205169338357
2.20680340170085,1.0087980790514017
2.2205102551275635,0.9958199567625295
2.234217108554277,0.9812420135232027
2.24792396198099,0.9669885961865422
2.261630815407704,0.9564405657326838
2.275337668834417,0.9474702908451069
2.2890445222611304,0.9432130285840875
2.3027513756878437,0.9409596835009786
2.316458229114557,0.9403806795471638
2.3301650825412703,0.9392470451636341
2.3438719359679836,0.9469690630209411
2.3575787893946973,0.9571306054060418
2.3712856428214106,0.9642605769129038
2.384992496248124,0.977095785417256
2.3986993496748372,0.9887950562959557
2.4124062031015505,1.002209076708979
2.426113056528264,1.0149801879067648
2.439819909954977,1.026620460592215
2.4535267633816904,1.038001917930782
2.467233616808404,1.0488355148584738
2.4809404702351174,1.0528904640079384
2.4946473236618307,1.0553843009071018
2.508354177088544,1.0575109287269615
2.5220610305152573,1.055246102082643
2.5357678839419706,1.0503499717066649
2.549474737368684,1.04432817222519
2.5631815907953976,1.0334468814829807
2.576888444222111,1.0263486585338653
2.5905952976488242,1.0105564812955192
2.6043021510755375,1.0003577548881089
2.618009004502251,0.988936940884693
2.631715857928964,0.9762135583009756
2.6454227113556774,0.9641610767215983
2.659129564782391,0.9566731259767176
2.6728364182091044,0.9535200530807193
2.6865432716358177,0.9468204367094097
2.700250125062531,0.9453613794875821
2.7139569784892443,0.9490203266050694
2.7276638319159576,0.9497039970304689
2.741370685342671,0.9576749813842046
2.755077538769384,0.9657084312624457
2.768784392196098,0.9764511469864198
2.7824912456228112,0.9895863974206359
2.7961980990495245,0.9982162564749516
2.809904952476238,1.0111366686077055
2.823611805902951,1.0203753112441594
2.8373186593296644,1.0286795668614674
2.8510255127563777,1.0383401350841424
2.8647323661830915,1.0446076436123966
2.8784392196098048,1.0480283759775129
2.892146073036518,1.0493223693018772
2.9058529264632313,1.0477406769257969
2.9195597798899446,1.0457171465561257
2.933266633316658,1.039034680867836
2.9469734867433712,1.0342565233435876
2.960680340170085,1.0239119694468541
2.9743871935967983,1.0166329201761437
2.9880940470235116,1.0011768654648645
3.001800900450225,0.9944490144194055
3.015507753876938,0.9806591145968465
3.0292146073036514,0.9737060344921484
3.0429214607303647,0.9651498258491263
3.056628314157078,0.9586673304040132
3.0703351675837918,0.9536154705725042
3.084042021010505,0.9534283659472352
3.0977488744372184,0.9554755621839098
3.1114557278639317,0.9567322704520953
3.125162581290645,0.9600891102317626
3.1388694347173582,0.966191090385264
3.1525762881440715,0.9773187448913617
3.1662831415707853,0.9859356332018656
3.1799899949974986,0.9949814392027515
3.193696848424212,1.0048445847537928
3.207403701850925,1.012440658290749
3.2211105552776385,1.0231012181071721
3.2348174087043517,1.0313752402613636
3.248524262131065,1.0385639142200362
3.262231115557779,1.038490269706179
3.275937968984492,1.0435751560477582
3.2896448224112054,1.039258333421667
3.3033516758379187,1.0395647232614846
3.317058529264632,1.0290352504421418
3.3307653826913453,1.0269917820429608
3.3444722361180586,1.020244063597393
3.358179089544772,1.015193713766461
3.3718859429714856,1.0024450065471155
3.385592796398199,0.994283152930098
3.399299649824912,0.9882981267124087
3.4130065032516255,0.9778343180529742
3.4267133566783388,0.975402984386182
3.440420210105052,0.9689665009576716
3.4541270635317654,0.9657242073220116
3.467833916958479,0.9607104250788363
3.4815407703851924,0.9612659734945053
3.4952476238119057,0.9650092728041849
3.508954477238619,0.9682936364452738
3.5226613306653323,0.9704258821922845
3.5363681840920456,0.9801107179372498
3.550075037518759,0.9892897420252235
3.5637818909454726,0.9960664094472018
3.577488744372186,1.001280079484695
3.591195597798899,1.0145009717467857
3.6049024512256125,1.0171371323052292
3.6186093046523258,1.0204960976310236
3.632316158079039,1.0276804243885895
3.6460230115057524,1.0333839652967862
3.659729864932466,1.02859398345693
3.6734367183591794,1.0281417031768383
3.6871435717858927,1.032086760091361
3.700850425212606,1.0255843306814922
3.7145572786393193,1.0229292052952395
3.7282641320660326,1.0149974710452858
3.741970985492746,1.0080310393896497
3.755677838919459,1.0027999241310874
3.769384692346173,0.9938040546026122
3.783091545772886,0.9886627717798124
3.7967983991995995,0.9854476256293448
3.810505252626313,0.9777868922468174
3.824212106053026,0.975467954604727
3.8379189594797394,0.9710229857909787
3.8516258129064527,0.970819315406206
3.8653326663331664,0.9737723520367181
3.8790395197598797,0.9713639353152056
3.892746373186593,0.9767151417445897
3.9064532266133063,0.9787022614063183
3.9201600800400196,0.9851636614386257
3.933866933466733,0.9934598961124997
3.947573786893446,0.9972420229146776
3.96128064032016,1.0035745914821224
3.974987493746873,1.0076313725143915
3.9886943471735865,1.013555352228539
4.0024012006003,1.0192348125609152
4.016108054027013,1.021825099844596
4.029814907453726,1.022878785174659
4.04352176088044,1.023800456877309
4.057228614307153,1.0252848507271621
4.070935467733866,1.0211089432744156
4.08464232116058,1.0217787395290774
4.098349174587293,1.0131714820881648
4.112056028014007,1.0087144843380094
4.12576288144072,1.0044946752660666
4.139469734867434,1.0002216813856912
4.153176588294147,0.9940340050936054
4.16688344172086,0.9907156711809084
4.1805902951475735,0.9866317223532372
4.194297148574287,0.9801812552384694
4.208004002001,0.979892259224522
4.221710855427713,0.9784167917919891
4.235417708854427,0.9801214738988437
4.24912456228114,0.9817947516060878
4.262831415707853,0.9819039963364319
4.276538269134567,0.9869990864071666
4.29024512256128,0.9893128600664501
4.303951975987993,0.992819949548124
4.317658829414707,0.9977787059860794
4.331365682841421,1.001645497936188
4.345072536268134,1.0077068631090351
4.358779389694847,1.0122734470467556
4.3724862431215605,1.015135910000031
4.386193096548274,1.0163038700579956
4.399899949974987,1.0191300080625743
4.4136068034017,1.018307595142732
4.427313656828414,1.0179124116800193
4.441020510255127,1.0151249797104613
4.45472736368184,1.0123090435125282
4.468434217108554,1.0125285244121567
4.482141070535267,1.0084538727045704
4.49584792396198,1.002142398986946
4.5095547773886935,0.9975962340438469
4.523261630815408,0.9937980342308049
4.536968484242121,0.989298675653585
4.550675337668834,0.9856909492012788
4.5643821910955475,0.9849731619292735
4.578089044522261,0.9801352063922307
4.591795897948974,0.9831048177266507
4.605502751375687,0.9805442566697186
4.619209604802401,0.9852635662230435
4.632916458229114,0.9842056098719378
4.646623311655827,0.9873217934426771
4.660330165082541,0.9932093514351097
4.674037018509254,0.9933183181010709
4.687743871935967,0.9982888688076171
4.7014507253626805,1.0036777055817867
4.715157578789395,1.0077490005601482
4.728864432216108,1.0122205382823213
4.742571285642821,1.017202367146464
4.756278139069535,1.0154100149603504
4.769984992496248,1.0160265333668546
4.783691845922961,1.0183729300065967
4.7973986993496744,1.0187776412547553
4.811105552776388,1.016642455735998
4.824812406203101,1.01163015639471
4.838519259629814,1.008148016904009
4.852226113056528,1.004822703130633
4.865932966483241,1.0007501952164906
4.879639819909954,0.9995407220323395
4.8933466733366675,0.9889679653908261
4.907053526763381,0.9867982940183375
4.920760380190095,0.9838462757871103
4.934467233616808,0.9831943163780067
4.948174087043522,0.9809203061428527
4.961880940470235,0.9797621220385309
4.975587793896948,0.9811443067889535
4.9892946473236615,0.985135939706354
5.003001500750375,0.9858749593754906
5.016708354177088,0.9880501749182882
5.030415207603801,0.9945045235795715
5.044122061030515,0.9964576873343435
5.057828914457228,1.004762368168637
5.071535767883941,1.0068700768460204
5.0852426213106545,1.0118624489167665
5.098949474737368,1.0169513976186633
5.112656328164081,1.018970620915847
5.126363181590795,1.0210890950232028
5.140070035017509,1.0207583431402656
5.153776888444222,1.0240673784956178
5.167483741870935,1.0199644146424809
5.1811905952976485,1.015132178207708
5.194897448724362,1.0149867258368557
5.208604302151075,1.011266720570107
5.222311155577788,1.006722810142624
5.236018009004502,0.9993431181152551
5.249724862431215,0.9970212725373324
5.263431715857928,0.991070904398431
5.2771385692846415,0.9851209091315047
5.290845422711355,0.9842462125820031
5.304552276138068,0.9795270336911077
5.318259129564782,0.9793728373490834
5.331965982991496,0.9781314047343531
5.345672836418209,0.9796450854077736
5.359379689844922,0.9791010751886058
5.3730865432716355,0.9811427937055834
5.386793396698349,0.9835776863135988
5.400500250125062,0.9875833079883388
5.414207103551775,0.9958933369153168
5.427913956978489,0.9996973296902208
5.441620810405202,1.0095885410401808
5.455327663831915,1.0117833848706947
5.4690345172586285,1.0136168635737557
5.482741370685342,1.020557151378287
5.496448224112055,1.0256666419037823
5.510155077538768,1.0237887082547779
5.523861930965483,1.0251605532151926
5.537568784392196,1.0240860477653138
5.551275637818909,1.023162684867186
5.5649824912456225,1.0178537754889834
5.578689344672336,1.0153169659897519
5.592396198099049,1.0104496873874127
5.606103051525762,1.0056448278703323
5.619809904952476,0.9994328886819399
5.633516758379189,0.9913622971587832
5.647223611805902,0.9878667919550768
5.660930465232616,0.9828048139116792
5.674637318659329,0.9800186831360578
5.688344172086042,0.9745756448959457
5.7020510255127554,0.9726326666398241
5.71575787893947,0.9733083286856442
5.729464732366183,0.9752857830028044
5.743171585792896,0.9760839361171509
5.7568784392196095,0.9782789772621682
5.770585292646323,0.9880723077836138
5.784292146073036,0.9908340046728573
5.797998999499749,0.9978647326636498
5.811705852926463,0.9994185682040304
5.825412706353176,1.0046963433674683
5.839119559779889,1.0140954365397303
5.852826413206603,1.018674937455088
5.866533266633316,1.021231464697349
5.880240120060029,1.0263936940073353
5.8939469734867425,1.0263627360122431
5.907653826913456,1.0298630662210684
5.92136068034017,1.0291372141526987
5.935067533766883,1.0249915037985942
5.9487743871935965,1.0210963803402135
5.96248124062031,1.0170634355962804
5.976188094047023,1.0116673060890409
5.989894947473736,1.0073510419411897
6.00360180090045,0.9983522176429446
6.017308654327163,0.9918329491374236
6.031015507753876,0.9873328200147284
6.04472236118059,0.9796045249483101
6.058429214607303,0.9744906868984717
6.072136068034016,0.9730641488015924
6.0858429214607295,0.971946127675195
6.099549774887443,0.9696899237726258
6.113256628314156,0.972222106639369
6.12696348174087,0.9734470340147386
6.1406703351675835,0.9754944124279011
6.154377188594297,0.9820775341776775
6.16808404202101,0.9871704188151584
6.181790895447723,0.9937475448919135
6.195497748874437,0.9997937497459705
6.20920460230115,1.0057724264193622
6.222911455727863,1.013467906787298
6.236618309154577,1.021587502786672
6.25032516258129,1.0244886220510192
6.264032016008003,1.0291994890028455
6.2777388694347165,1.02823985982108
6.29144572286143,1.032056943448884
6.305152576288143,1.030117332663892
6.318859429714857,1.031038855226876
6.3325662831415706,1.0236877929499308
6.346273136568284,1.023328593241183
6.359979989994997,1.0163283069532365
6.37368684342171,1.0071492603607446
6.387393696848424,1.0030778756909824
6.401100550275137,0.9944610516845466
6.41480740370185,0.9908146769478196
6.428514257128564,0.9833961697791482
6.442221110555277,0.9774919396555685
6.45592796398199,0.9725487267280084
6.4696348174087035,0.9688455688550001
6.483341670835417,0.9669722624744472
6.49704852426213,0.9683755112397106
6.510755377688843,0.9712743546718005
6.524462231115558,0.9742179420170963
6.538169084542271,0.9769706011830059
6.551875937968984,0.9798771255264974
6.5655827913956974,0.9892076198539931
6.579289644822411,0.996312215737948
6.592996498249124,1.0031714527241948
6.606703351675837,1.0086997704974539
6.620410205102551,1.018984594159816
6.634117058529264,1.0230108426674023
6.647823911955977,1.0263772873071324
6.6615307653826905,1.0281641101823056
6.675237618809404,1.032594340678408
6.688944472236117,1.0319472146852884
6.70265132566283,1.0347863159218131
6.716358179089544,1.0288711456166073
6.730065032516258,1.0245664615286083
6.743771885942971,1.0188590299361593
6.7574787393696845,1.014018649065482
6.771185592796398,1.0070075962837972
6.784892446223111,0.9968929926518602
6.798599299649824,0.9928208383305275
6.812306153076538,0.9849023612551439
6.826013006503251,0.9807641385777421
6.839719859929964,0.9740900011793561
6.8534267133566775,0.9699460711865133
6.867133566783391,0.9717058911876646
6.880840420210104,0.9686653463735614
6.894547273636817,0.9706576847009161
6.908254127063531,0.9705899639735657
6.921960980490245,0.9771624191263923
6.935667833916958,0.9783770953527738
6.9493746873436715,0.9841488569198323
6.963081540770385,0.9925183663216757
6.976788394197098,1.0014998420619925
6.990495247623811,1.0045410834534407
7.004202101050525,1.0119586466216033
7.017908954477238,1.0173663145472993
7.031615807903951,1.022154113327017
7.0453226613306645,1.0271893424594487
7.059029514757378,1.0315846690730217
7.072736368184091,1.0307258176853176
7.086443221610804,1.0305511184496614
7.100150075037518,1.0281326271994797
7.113856928464231,1.0254622484080225
7.127563781890945,1.022641801480222
7.1412706353176585,1.0160079978495984
7.154977488744372,1.0134941963543673
7.168684342171085,1.0015768319713085
7.182391195597798,0.9984740167715512
7.196098049024512,0.9892889922397444
7.209804902451225,0.9843758105403897
7.223511755877938,0.9785363027102544
7.2372186093046516,0.9762860419819481
7.250925462731365,0.972178370583257
7.264632316158078,0.9717260056490489
7.278339169584791,0.9706710926745441
7.292046023011505,0.9706601341375726
7.305752876438218,0.9745799316788049
7.319459729864932,0.9761415869432539
7.3331665832916455,0.982136699113141
7.346873436718359,0.9856216734191013
