time,flux
0.0,0.9902567015565269
0.013706853426713355,0.9810973421711545
0.02741370685342671,0.9737769450491411
0.041120560280140064,0.9657517914669398
0.05482741370685342,0.9608660093380673
0.06853426713356678,0.9563449569490731
0.08224112056028013,0.9535372400752934
0.09594797398699349,0.951787483455095
0.10965482741370684,0.9481500498073548
0.1233616808404202,0.9516916794700291
0.13706853426713356,0.9557618602593937
0.1507753876938469,0.9605870597385121
0.16448224112056026,0.9672005238402267
0.1781890945472736,0.9734465006513808
0.19189594797398699,0.9802079849701987
0.20560280140070034,0.9901182162527173
0.21930965482741369,1.0000373129372508
0.23301650825412704,1.0115247142457853
0.2467233616808404,1.0207165239473162
0.26043021510755376,1.0274289096487998
0.2741370685342671,1.0380898422257006
0.28784392196098046,1.040458609999117
0.3015507753876938,1.0459235417361679
0.31525762881440716,1.0488941511742462
0.3289644822411205,1.0486480769383042
0.34267133566783387,1.0464494709979322
0.3563781890945472,1.0488589258443155
0.3700850425212606,1.0442765547594377
0.38379189594797397,1.037427740882565
0.3974987493746873,1.0332626434630128
0.41120560280140067,1.0264507122179403
0.424912456228114,1.0183415871159944
0.43861930965482737,1.010681843807351
0.4523261630815407,1.0030648569725422
0.46603301650825407,0.9948993298305374
0.4797398699349674,0.9878372116075299
0.4934467233616808,0.9827615167522733
0.5071535767883941,0.9764421588474911
0.5208604302151075,0.9766655180412827
0.5345672836418208,0.9717339363238547
0.5482741370685342,0.9752518568636596
0.5619809904952475,0.9740077386808417
0.5756878439219609,0.9731733433575873
0.5893946973486743,0.9740555430646188
0.6031015507753876,0.9792798180631163
0.616808404202101,0.9842639960174011
0.6305152576288143,0.9863730513969136
0.6442221110555277,0.9911640907303503
0.657928964482241,0.9943807686862275
0.6716358179089544,0.994759702961946
0.6853426713356677,1.0000893226826801
0.6990495247623811,1.002690588319425
0.7127563781890944,1.002262701795047
0.7264632316158078,1.0045349950346973
0.7401700850425212,1.00360486500929
0.7538769384692345,1.002281833401546
0.7675837918959479,1.0018580712241192
0.7812906453226612,0.9997475256485491
0.7949974987493746,0.9921418617033658
0.8087043521760879,0.9944954813816479
0.8224112056028013,0.9916532338709103
0.8361180590295146,0.9894189762676772
0.849824912456228,0.9880697781105624
0.8635317658829413,0.9866184533842265
0.8772386193096547,0.9867552469083373
0.8909454727363681,0.9872011182928759
0.9046523261630814,0.9879146205397462
0.9183591795897948,0.9935651499883617
0.9320660330165081,0.9974318326696265
0.9457728864432215,1.0003815214299903
0.9594797398699348,1.005293002119638
0.9731865932966483,1.0099263931989158
0.9868934467233615,1.0184229022478524
1.000600300150075,1.0208712500218318
1.0143071535767882,1.026819736748023
1.0280140070035018,1.0328961301246316
1.041720860430215,1.0377447406969533
1.0554277138569284,1.0369272424788307
1.0691345672836416,1.0425359656640223
1.0828414207103552,1.039656687586016
1.0965482741370685,1.0402563560426685
1.1102551275637818,1.03628579955482
1.123961980990495,1.0293720462942864
1.1376688344172086,1.023528029645054
1.1513756878439219,1.0179698673355266
1.1650825412706352,1.0068312923593263
1.1787893946973487,1.0014769315425547
1.192496248124062,0.9919165225433462
1.2062031015507753,0.9829875139881609
1.2199099549774886,0.9753577759533657
1.233616808404202,0.9659982012874497
1.2473236618309154,0.9601678078297528
1.2610305152576287,0.9553927557322979
1.274737368684342,0.9539515429322243
1.2884442221110555,0.9496899466186629
1.3021510755377688,0.9470831874230929
1.315857928964482,0.9502576079399175
1.3295647823911956,0.9519654585342889
1.3432716358179089,0.9577112981016943
1.3569784892446222,0.9653180365077985
1.3706853426713355,0.9689292273967709
1.384392196098049,0.9767410301683854
1.3980990495247623,0.9890515759920001
1.4118059029514756,0.9949238863268007
1.4255127563781889,1.006036684198953
1.4392196098049024,1.0151696459806634
1.4529264632316157,1.0220343899493287
1.466633316658329,1.029945505752137
1.4803401700850425,1.0342496971015238
1.4940470235117558,1.039036249660738
1.507753876938469,1.0415331328821276
1.5214607303651824,1.0433047868846814
1.5351675837918959,1.042231769874755
1.5488744372186092,1.0437177668307696
1.5625812906453225,1.0408790203283593
1.5762881440720358,1.0359528708953807
1.5899949974987493,1.0277294099664713
1.6037018509254626,1.0200197909921045
1.6174087043521759,1.0150835845201545
1.6311155577788894,1.007986753299448
1.6448224112056027,1.0015213516619643
1.658529264632316,0.9985158544001841
1.6722361180590293,0.9891842713999289
1.6859429714857428,0.9899907532351708
1.699649824912456,0.9852223412786183
1.7133566783391694,0.9828340912916333
1.7270635317658827,0.9846472681263198
1.7407703851925962,0.98435478063666
1.7544772386193095,0.9878785091919172
1.7681840920460228,0.9884135770244616
1.7818909454727363,0.9908072519845057
1.7955977988994496,0.989112574192412
1.8093046523261629,0.9904902471270428
1.8230115057528762,0.9960960684498057
1.8367183591795897,0.997616531326722
1.850425212606303,0.9984370111747892
1.8641320660330163,1.0011894707844418
1.8778389194597296,1.001922916228176
1.891545772886443,0.9999106995358275
1.9052526263131564,1.002183458221848
1.9189594797398697,0.9986575438213875
1.9326663331665832,0.9988585737454747
1.9463731865932965,0.9934276463850471
1.9600800400200098,0.9910332659247636
1.973786893446723,0.9891283512767745
1.9874937468734366,0.9831586662199536
2.00120060030015,0.9824528512612938
2.014907453726863,0.978010872215327
2.0286143071535765,0.9773895840192259
2.04232116058029,0.9764968409909516
2.0560280140070035,0.9769094827087842
2.069734867433717,0.976326006755551
2.08344172086043,0.9767446777859885
2.0971485742871434,0.9860465519679803
2.1108554277138567,0.9876164900999413
2.12456228114057,0.995456813096021
2.1382691345672833,0.9999961269209843
2.1519759879939966,1.0049478021242157
2.1656828414207103,1.0158852895090604
2.1793896948474236,1.020653684979721
2.193096548274137,1.0296606038871
2.20680340170085,1.0368486886668133
2.2205102551275635,1.0415403223850406
2.234217108554277,1.0421593518746226
2.24792396198099,1.047037839538077
2.261630815407704,1.0473092079487614
2.275337668834417,1.046879141182375
2.2890445222611304,1.0459569920676182
2.3027513756878437,1.0408063269877752
2.316458229114557,1.03538178207026
2.3301650825412703,1.0164519798269487
2.3438719359679836,1.021251193028114
2.3575787893946973,1.0112372150826758
2.3712856428214106,1.0027487513813549
2.384992496248124,0.994639718052439
2.3986993496748372,0.9861186779895992
2.4124062031015505,0.9737053073998158
2.426113056528264,0.9677723525523101
2.439819909954977,0.9622246570802577
2.4535267633816904,0.9571214893571623
2.467233616808404,0.9501104791296048
2.4809404702351174,0.9470614342747126
2.4946473236618307,0.9523292785445399
2.508354177088544,0.9514337083639804
2.5220610305152573,0.9509351741381338
2.5357678839419706,0.9556076752884615
2.549474737368684,0.9623088464269554
2.5631815907953976,0.9696483660337847
2.576888444222111,0.9779570720268431
2.5905952976488242,0.9835127159827572
2.6043021510755375,0.9933893391220193
2.618009004502251,1.0027789337647872
2.631715857928964,1.0091236582454695
2.6454227113556774,1.0177586357938524
2.659129564782391,1.0235196353585232
2.6728364182091044,1.0307320248588532
2.6865432716358177,1.029978556037519
2.700250125062531,1.033897712073968
2.7139569784892443,1.0307389136381508
2.7276638319159576,1.032020539111052
2.741370685342671,1.0323257826634848
2.755077538769384,1.031655436072873
2.768784392196098,1.0267733914133066
2.7824912456228112,1.0208459048334795
2.7961980990495245,1.0162981600070315
2.809904952476238,1.0124814025215951
2.823611805902951,1.0057660976343448
2.8373186593296644,1.0025094233660037
2.8510255127563777,0.9997891230845197
2.8647323661830915,0.9945781841896574
2.8784392196098048,0.9919527628855459
2.892146073036518,0.9910502368117419
2.9058529264632313,0.9912442683079697
2.9195597798899446,0.995516722224803
2.933266633316658,0.9955886670183296
2.9469734867433712,0.9976914900847041
2.960680340170085,1.0009479553654164
2.9743871935967983,1.0008660571723544
2.9880940470235116,1.0045451999046187
3.001800900450225,1.0063171972957237
3.015507753876938,1.0079924427445637
3.0292146073036514,1.0081324781359509
3.0429214607303647,1.009238149695434
3.056628314157078,1.0073554001028808
3.0703351675837918,1.0061269358934597
3.084042021010505,1.0105106862741908
3.0977488744372184,0.9984316115439332
3.1114557278639317,0.9985433993005237
3.125162581290645,0.9920037682120736
3.1388694347173582,0.9884079580716592
3.1525762881440715,0.9805648024402226
3.1662831415707853,0.9764295831443215
3.1799899949974986,0.9724753448550524
3.193696848424212,0.97068686719091
3.207403701850925,0.9679174051482585
3.2211105552776385,0.9657269436687057
3.2348174087043517,0.9645539338027211
3.248524262131065,0.964110648575722
3.262231115557779,0.968787462544045
3.275937968984492,0.9726405064168022
3.2896448224112054,0.9741678408015191
3.3033516758379187,0.9837297278829449
3.317058529264632,0.9897378417537738
3.3307653826913453,0.9959016751802678
3.3444722361180586,1.0048775850732627
3.358179089544772,1.0148639652068947
3.3718859429714856,1.0224252468783794
3.385592796398199,1.0280417574819314
3.399299649824912,1.0362674510162972
3.4130065032516255,1.0458656997353337
3.4267133566783388,1.045656289637003
3.440420210105052,1.050522049710638
3.4541270635317654,1.052095527613183
3.467833916958479,1.0537904601077475
3.4815407703851924,1.0472144783897295
3.4952476238119057,1.044772733482527
3.508954477238619,1.0409087125922833
3.5226613306653323,1.0340423164597412
3.5363681840920456,1.0270892075098192
3.550075037518759,1.0186079032719462
3.5637818909454726,1.0052832599908446
3.577488744372186,0.9982813578193025
3.591195597798899,0.9872674451381084
3.6049024512256125,0.9796147157868916
3.6186093046523258,0.9737246434245971
3.632316158079039,0.9653146032880682
3.6460230115057524,0.9585558269421569
3.659729864932466,0.9564011234135344
3.6734367183591794,0.9549485735443812
3.6871435717858927,0.953526088892919
3.700850425212606,0.9564193031545438
3.7145572786393193,0.9604901028073329
3.7282641320660326,0.9618374230129773
3.741970985492746,0.9639284377658902
3.755677838919459,0.9738014605235683
3.769384692346173,0.9830140588679164
3.783091545772886,0.9866551300376631
3.7967983991995995,0.9917335358882398
3.810505252626313,1.0022666811520957
3.824212106053026,1.0053763195155987
3.8379189594797394,1.0111760164879433
3.8516258129064527,1.0161257544398294
3.8653326663331664,1.0171418629520168
3.8790395197598797,1.0180762505572025
3.892746373186593,1.0246928279302325
3.9064532266133063,1.0245173698997376
3.9201600800400196,1.0215054376964943
3.933866933466733,1.0210127493555414
3.947573786893446,1.0152603747517397
3.96128064032016,1.0162096088725507
3.974987493746873,1.008842515701252
3.9886943471735865,1.0079276116299551
4.0024012006003,1.005622252167751
4.016108054027013,1.0015778867307157
4.029814907453726,1.0001514753568501
4.04352176088044,0.9988444789636968
4.057228614307153,0.9973969101996125
4.070935467733866,0.9979800731444027
4.08464232116058,0.9965353550103299
4.098349174587293,0.9988000553934884
4.112056028014007,1.003399674321204
4.12576288144072,1.0075087164518146
4.139469734867434,1.0114734192614685
4.153176588294147,1.0092255831656662
4.16688344172086,1.0125402401573211
4.1805902951475735,1.0154057376506826
4.194297148574287,1.0181675598027384
4.208004002001,1.0202751449593024
4.221710855427713,1.0176951554620803
4.235417708854427,1.0164781564533107
4.24912456228114,1.0179368573878718
4.262831415707853,1.0120636897500246
4.276538269134567,1.0102287830821972
4.29024512256128,1.002391645482594
4.303951975987993,0.997320838828639
4.317658829414707,0.9925297146722597
4.331365682841421,0.9844786910019767
4.345072536268134,0.9790463770371286
4.358779389694847,0.9738319207715526
4.3724862431215605,0.9647764309930696
4.386193096548274,0.9616451728517371
4.399899949974987,0.9595440005568628
4.4136068034017,0.9565022576795597
4.427313656828414,0.9561594434508884
4.441020510255127,0.9545849678880295
4.45472736368184,0.9608333333624147
4.468434217108554,0.9628148056819433
4.482141070535267,0.9677271710648788
4.49584792396198,0.9763379384204814
4.5095547773886935,0.9829831266255608
4.523261630815408,0.9920162557147889
4.536968484242121,1.0018788857677166
4.550675337668834,1.009407312616463
4.5643821910955475,1.0202083148938195
4.578089044522261,1.027639405531154
4.591795897948974,1.0352574502820755
4.605502751375687,1.0453231059509518
4.619209604802401,1.0481331632076527
4.632916458229114,1.0495372189535899
4.646623311655827,1.052995496906802
4.660330165082541,1.051386030106344
4.674037018509254,1.0490728836932535
4.687743871935967,1.04376339903042
4.7014507253626805,1.041685963237404
4.715157578789395,1.032111396371487
4.728864432216108,1.027910387690457
4.742571285642821,1.0179082846997645
4.756278139069535,1.0117177410724856
4.769984992496248,0.9981257382507146
4.783691845922961,0.9940579759683328
4.7973986993496744,0.9833806548735302
4.811105552776388,0.9762914247254584
4.824812406203101,0.9715566663254158
4.838519259629814,0.9689669654468374
4.852226113056528,0.964386033754284
4.865932966483241,0.9630118432033988
4.879639819909954,0.9610109471493569
4.8933466733366675,0.9617831413895584
4.907053526763381,0.9667656941724985
4.920760380190095,0.9692214417035709
4.934467233616808,0.9744593536991595
4.948174087043522,0.9762645331331173
4.961880940470235,0.9839269621309148
4.975587793896948,0.9885630533680514
4.9892946473236615,0.9930672095950772
5.003001500750375,0.9970513460437169
5.016708354177088,1.005828387693151
5.030415207603801,1.0064246212495347
5.044122061030515,1.0091263918677222
5.057828914457228,1.0101667987606453
5.071535767883941,1.011109643076389
5.0852426213106545,1.0093028666234503
5.098949474737368,1.009721324763424
5.112656328164081,1.0063444419272665
5.126363181590795,1.0069000845795932
5.140070035017509,1.0016543595275929
5.153776888444222,1.0013093207649864
5.167483741870935,1.0010459488685386
5.1811905952976485,0.9971043927914516
5.194897448724362,0.9945793579652998
5.208604302151075,0.995024203638732
5.222311155577788,0.995801732992283
5.236018009004502,0.9965509577257116
5.249724862431215,0.9992123111319853
5.263431715857928,0.9996650710579156
5.2771385692846415,1.0036934861143845
5.290845422711355,1.0054078484372653
5.304552276138068,1.010980116534571
5.318259129564782,1.017384489719092
5.331965982991496,1.0174161675305784
5.345672836418209,1.0228780722854516
5.359379689844922,1.027315023662318
5.3730865432716355,1.0274275249140936
5.386793396698349,1.0322749439644103
5.400500250125062,1.0330510693958441
5.414207103551775,1.030494133481105
5.427913956978489,1.0257405967967865
5.441620810405202,1.0255706176030448
5.455327663831915,1.0197199110663446
5.4690345172586285,1.0106207048748408
5.482741370685342,1.0063377263114832
5.496448224112055,0.9989693051975501
5.510155077538768,0.9884373617227964
5.523861930965483,0.9814097375555927
5.537568784392196,0.9752406289115464
5.551275637818909,0.9673309158802086
5.5649824912456225,0.9622302189981833
5.578689344672336,0.9555374127403589
5.592396198099049,0.950954708166667
5.606103051525762,0.9508799341387713
5.619809904952476,0.9505237532263643
5.633516758379189,0.9519070880643117
5.647223611805902,0.9528984331581775
5.660930465232616,0.9565828165775977
5.674637318659329,0.9630582194278985
5.688344172086042,0.9723155860007926
5.7020510255127554,0.9789308766452437
5.71575787893947,0.9909180154127445
5.729464732366183,1.0000711024780273
5.743171585792896,1.010231826923886
5.7568784392196095,1.0174891009683176
5.770585292646323,1.0253887907721908
5.784292146073036,1.0350798197661493
5.797998999499749,1.0395671249843363
5.811705852926463,1.0456043602229403
5.825412706353176,1.0470496261314828
5.839119559779889,1.0489932466227696
5.852826413206603,1.048262507896836
5.866533266633316,1.0480497811118472
5.880240120060029,1.0402078787025557
5.8939469734867425,1.039001046976784
5.907653826913456,1.0315062649856896
5.92136068034017,1.0248672550814162
5.935067533766883,1.0177350536254903
5.9487743871935965,1.0084617086060765
5.96248124062031,1.003288712770659
5.976188094047023,0.9957522734956059
5.989894947473736,0.9893383283345493
6.00360180090045,0.9826165277930351
6.017308654327163,0.9815617842492934
6.031015507753876,0.9743763000092693
6.04472236118059,0.9730658375380102
6.058429214607303,0.970529543477157
6.072136068034016,0.9707083638384774
6.0858429214607295,0.9728024607461628
6.099549774887443,0.9741703653818773
6.113256628314156,0.9789891893142596
6.12696348174087,0.9797267783834941
6.1406703351675835,0.9846060664530217
6.154377188594297,0.9867416209729668
6.16808404202101,0.9950099557530073
6.181790895447723,0.99808777197552
6.195497748874437,0.9999042771915985
6.20920460230115,1.002284054658869
6.222911455727863,1.0047389221885885
6.236618309154577,1.0040795736250396
6.25032516258129,1.0037481070116145
6.264032016008003,1.003673048183121
6.2777388694347165,1.00029840227086
6.29144572286143,0.9986369921503218
6.305152576288143,0.9962541136430948
6.318859429714857,0.9929237743789056
6.3325662831415706,0.9908223851180461
6.346273136568284,0.9891337028521425
6.359979989994997,0.9870216003077222
6.37368684342171,0.986982932759338
6.387393696848424,0.9870300625292191
6.401100550275137,0.9896455522386929
6.41480740370185,0.9890033662222995
6.428514257128564,0.9894876798355976
6.442221110555277,0.9966616393931867
6.45592796398199,0.9983872435798
6.4696348174087035,1.0050859921493855
6.483341670835417,1.0127925625087935
6.49704852426213,1.0129177310195436
6.510755377688843,1.0238685073464167
6.524462231115558,1.0283802453844175
6.538169084542271,1.031349000654204
6.551875937968984,1.0369111657826335
6.5655827913956974,1.0385212803690846
6.579289644822411,1.0389899014149768
6.592996498249124,1.0404204538327082
6.606703351675837,1.0376269691367206
6.620410205102551,1.0398242513800968
6.634117058529264,1.0275113009136225
6.647823911955977,1.0268093405596772
6.6615307653826905,1.0166858479542649
6.675237618809404,1.0093380091868835
6.688944472236117,0.999551317823972
6.70265132566283,0.9890380548619727
6.716358179089544,0.9850255008144583
6.730065032516258,0.9718857166451413
6.743771885942971,0.9684746071604695
6.7574787393696845,0.9607676577631643
6.771185592796398,0.9562256608005066
6.784892446223111,0.9499837717840152
6.798599299649824,0.9463826780964816
6.812306153076538,0.9476524401386299
6.826013006503251,0.9517900371959527
6.839719859929964,0.9504376422762604
6.8534267133566775,0.9540499151660106
6.867133566783391,0.9622440921460549
6.880840420210104,0.9699899304034266
6.894547273636817,0.976488823323128
6.908254127063531,0.9874158981442804
6.921960980490245,0.995848822806588
6.935667833916958,1.004859240236894
6.9493746873436715,1.014768611524802
6.963081540770385,1.0196352191401947
6.976788394197098,1.0277041038719341
6.990495247623811,1.036701489339834
7.004202101050525,1.0395409198674719
7.017908954477238,1.0388976421996048
7.031615807903951,1.0420739355931212
7.0453226613306645,1.0420020566941977
7.059029514757378,1.0398530410381945
7.072736368184091,1.0381372795445627
7.086443221610804,1.0341428495556306
7.100150075037518,1.0262408498538387
7.113856928464231,1.02143461276127
7.127563781890945,1.012693102610745
7.1412706353176585,1.0096433594920589
7.154977488744372,1.0022638037753784
7.168684342171085,0.9974987016556208
7.182391195597798,0.993400713257885
7.196098049024512,0.988152180339148
7.209804902451225,0.9849007753032699
7.223511755877938,0.9852419723609864
7.2372186093046516,0.9839049599100802
7.250925462731365,0.9827591262600844
7.264632316158078,0.9838351947774392
7.278339169584791,0.9858122623049085
7.292046023011505,0.9895065035423908
7.305752876438218,0.9931461652908532
7.319459729864932,0.995336485661783
7.3331665832916455,0.9937935269920097
7.346873436718359,0.9945851772631312
