time,flux
0.0,0.989219234513796
0.013706853426713355,0.9897995966519356
0.02741370685342671,0.9919963510810688
0.041120560280140064,0.9943512874867618
0.05482741370685342,0.9963161449632792
0.06853426713356678,1.001819331519955
0.08224112056028013,1.0043099261118769
0.09594797398699349,1.0094589093679225
0.10965482741370684,1.0122262537349798
0.1233616808404202,1.015391558240356
0.13706853426713356,1.018923657817086
0.1507753876938469,1.0197994920724687
0.16448224112056026,1.0211266452807133
0.1781890945472736,1.0183550253633247
0.19189594797398699,1.0165893829795165
0.20560280140070034,1.0140567197871657
0.21930965482741369,1.0100627427320072
0.23301650825412704,1.0054278061249924
0.2467233616808404,0.9999122837408351
0.26043021510755376,0.9939666443946108
0.2741370685342671,0.9873997703345561
0.28784392196098046,0.9824351703848362
0.3015507753876938,0.9782350707225189
0.31525762881440716,0.9744244752928728
0.3289644822411205,0.9728235910840735
0.34267133566783387,0.9723259568969975
0.3563781890945472,0.9731676029383122
0.3700850425212606,0.9739958610136877
0.38379189594797397,0.9778956121048933
0.3974987493746873,0.9846874322164428
0.41120560280140067,0.9902709645015547
0.424912456228114,0.9972917963747324
0.43861930965482737,1.0053546312284274
0.4523261630815407,1.0132714795841768
0.46603301650825407,1.0189466995669598
0.4797398699349674,1.0251456115610993
0.4934467233616808,1.0310634816454922
0.5071535767883941,1.0336767343982505
0.5208604302151075,1.0363722513119538
0.5345672836418208,1.0355934750348688
0.5482741370685342,1.0328316835979368
0.5619809904952475,1.029490019657489
0.5756878439219609,1.023439566345073
0.5893946973486743,1.0168277321671246
0.6031015507753876,1.0083235473689887
0.616808404202101,0.9989283817645517
0.6305152576288143,0.9894553913609986
0.6442221110555277,0.9815233509166283
0.657928964482241,0.9735027882222388
0.6716358179089544,0.9671629278462628
0.6853426713356677,0.9618358381089982
0.6990495247623811,0.9586700520449098
0.7127563781890944,0.9587309652627424
0.7264632316158078,0.9594271471295311
0.7401700850425212,0.9641989161848405
0.7538769384692345,0.9696093008724486
0.7675837918959479,0.9759034367878744
0.7812906453226612,0.9852503081041858
0.7949974987493746,0.9940891084991554
0.8087043521760879,1.0055935242022216
0.8224112056028013,1.0141703051796667
0.8361180590295146,1.0242904334670202
0.849824912456228,1.033481833897086
0.8635317658829413,1.0383658240514402
0.8772386193096547,1.042808640834945
0.8909454727363681,1.0461195914835957
0.9046523261630814,1.0450346317282524
0.9183591795897948,1.043454016937024
0.9320660330165081,1.0364869023113212
0.9457728864432215,1.0306499464272618
0.9594797398699348,1.022485861775647
0.9731865932966483,1.0126866151074654
0.9868934467233615,1.001064835509764
1.000600300150075,0.9923396538406339
1.0143071535767882,0.9804560707844785
1.0280140070035018,0.9708449158144993
1.041720860430215,0.9631493005463768
1.0554277138569284,0.9576233923930382
1.0691345672836416,0.9522030609277025
1.0828414207103552,0.95183598277522
1.0965482741370685,0.9533040822339793
1.1102551275637818,0.957556129438501
1.123961980990495,0.9625394788702166
1.1376688344172086,0.9713554714498761
1.1513756878439219,0.9813929932505047
1.1650825412706352,0.9926380496126048
1.1787893946973487,1.0030684511572732
1.192496248124062,1.0135162238903774
1.2062031015507753,1.0237086010936503
1.2199099549774886,1.0326760949759375
1.233616808404202,1.0391526512140745
1.2473236618309154,1.0451526914752018
1.2610305152576287,1.047487487162952
1.274737368684342,1.0494456716238492
1.2884442221110555,1.0475905689668994
1.3021510755377688,1.0412414493020856
1.315857928964482,1.0338068384994672
1.3295647823911956,1.0244642599977434
1.3432716358179089,1.0151387081104748
1.3569784892446222,1.0041486088076435
1.3706853426713355,0.9926392632144351
1.384392196098049,0.9835092759502715
1.3980990495247623,0.9730763950043119
1.4118059029514756,0.9646676926966535
1.4255127563781889,0.959993059550866
1.4392196098049024,0.954586563017413
1.4529264632316157,0.952547597516292
1.466633316658329,0.9549629676974101
1.4803401700850425,0.9575890076380447
1.4940470235117558,0.9632266541011298
1.507753876938469,0.9695120683139841
1.5214607303651824,0.9787206648295326
1.5351675837918959,0.988632410480707
1.5488744372186092,0.9996394726798529
1.5625812906453225,1.0093862772130684
1.5762881440720358,1.0193551916363848
1.5899949974987493,1.0288684884341486
1.6037018509254626,1.0350656049436633
1.6174087043521759,1.0405811852489357
1.6311155577788894,1.0422044495937135
1.6448224112056027,1.0428834408148409
1.658529264632316,1.0419039151573766
1.6722361180590293,1.037733636073134
1.6859429714857428,1.0314255653380875
1.699649824912456,1.0244519421120861
1.7133566783391694,1.0152146514360443
1.7270635317658827,1.0064577053609767
1.7407703851925962,0.9965492173807116
1.7544772386193095,0.9885068399695556
1.7681840920460228,0.9799500611593579
1.7818909454727363,0.9734112900485511
1.7955977988994496,0.9670543452499106
1.8093046523261629,0.963457855585064
1.8230115057528762,0.9628453105452286
1.8367183591795897,0.9631179807671184
1.850425212606303,0.9649206048249652
1.8641320660330163,0.9690152564537795
1.8778389194597296,0.9748451643424056
1.891545772886443,0.9828664871836658
1.9052526263131564,0.9905670645029635
1.9189594797398697,0.9991916656191313
1.9326663331665832,1.0058375812611742
1.9463731865932965,1.0130175603997813
1.9600800400200098,1.0186684407202735
1.973786893446723,1.026027803182881
1.9874937468734366,1.0275682271580915
2.00120060030015,1.0290892473101656
2.014907453726863,1.0310500064069121
2.0286143071535765,1.0285969500047956
2.04232116058029,1.0254644235971957
2.0560280140070035,1.022200167642635
2.069734867433717,1.0173789254516366
2.08344172086043,1.0110632564159523
2.0971485742871434,1.0053071802660805
2.1108554277138567,0.9984769862531067
2.12456228114057,0.9931690901191406
2.1382691345672833,0.9871829838668197
2.1519759879939966,0.9827397444702857
2.1656828414207103,0.9796675213161291
2.1793896948474236,0.9773130792139316
2.193096548274137,0.9775140723105953
2.20680340170085,0.9781575345232395
2.2205102551275635,0.9804777840784097
2.234217108554277,0.9837202126757819
2.24792396198099,0.986899644409098
2.261630815407704,0.9897446978591634
2.275337668834417,0.9944265627662362
2.2890445222611304,1.0005093384330854
2.3027513756878437,1.0031089255977923
2.316458229114557,1.0080417936986577
2.3301650825412703,1.0108309045257842
2.3438719359679836,1.0127530856729343
2.3575787893946973,1.0137332874456566
2.3712856428214106,1.0147650049863122
2.384992496248124,1.0132465965046773
2.3986993496748372,1.0117415551521352
2.4124062031015505,1.0094006804317064
2.426113056528264,1.0063366846994513
2.439819909954977,1.004354198039445
2.4535267633816904,1.001568221501754
2.467233616808404,0.9995317777315218
2.4809404702351174,0.996163519291229
2.4946473236618307,0.9944112689555368
2.508354177088544,0.994326917878144
2.5220610305152573,0.9931649555133091
2.5357678839419706,0.993538204653735
2.549474737368684,0.9931703548181002
2.5631815907953976,0.9960439699693682
2.576888444222111,0.997028920673189
2.5905952976488242,0.9988757419801816
2.6043021510755375,1.001548869712288
2.618009004502251,1.0030551349347787
2.631715857928964,1.0046553121134951
2.6454227113556774,1.0059816590540716
2.659129564782391,1.0049975611000534
2.6728364182091044,1.0074489077510076
2.6865432716358177,1.005405222761161
2.700250125062531,1.004049610648629
2.7139569784892443,1.0039952041458282
2.7276638319159576,0.9997281648506993
2.741370685342671,0.9980042539388488
2.755077538769384,0.995667921738301
2.768784392196098,0.9940439605754502
2.7824912456228112,0.9903999131527346
2.7961980990495245,0.9891666566659877
2.809904952476238,0.9886691838259546
2.823611805902951,0.9881270252371906
2.8373186593296644,0.9878426513770617
2.8510255127563777,0.9902174803173679
2.8647323661830915,0.9939492413065634
2.8784392196098048,0.9969761951550508
2.892146073036518,1.000405060400917
2.9058529264632313,1.0035363049453685
2.9195597798899446,1.0079774232682879
2.933266633316658,1.0123245905939724
2.9469734867433712,1.01535768270547
2.960680340170085,1.0172310827062205
2.9743871935967983,1.0201929623754145
2.9880940470235116,1.018851373594261
3.001800900450225,1.0196644432343194
3.015507753876938,1.018214614585697
3.0292146073036514,1.0152175435530382
3.0429214607303647,1.0098780316106861
3.056628314157078,1.0062797473607814
3.0703351675837918,1.0005261543013146
3.084042021010505,0.9958543084858191
3.0977488744372184,0.987742904255188
3.1114557278639317,0.9848884895565744
3.125162581290645,0.9795334178884053
3.1388694347173582,0.9751644398926154
3.1525762881440715,0.9722704392715713
3.1662831415707853,0.9711261821217887
3.1799899949974986,0.9724339085512564
3.193696848424212,0.9745219905639309
3.207403701850925,0.978049232961383
3.2211105552776385,0.9834465287287751
3.2348174087043517,0.9890801633323476
3.248524262131065,0.9960545281683378
3.262231115557779,1.002778644118896
3.275937968984492,1.0112281670657186
3.2896448224112054,1.0174894701807071
3.3033516758379187,1.0241229280528505
3.317058529264632,1.0293345340118947
3.3307653826913453,1.0325262576766396
3.3444722361180586,1.035121490709949
3.358179089544772,1.0350139140076655
3.3718859429714856,1.0343297782443028
3.385592796398199,1.0302338089378225
3.399299649824912,1.0258884831009316
3.4130065032516255,1.018587571292645
3.4267133566783388,1.0106071432224206
3.440420210105052,1.0008837842947604
3.4541270635317654,0.9923423645056971
3.467833916958479,0.9841728950101482
3.4815407703851924,0.9764262437534318
3.4952476238119057,0.9687886930057446
3.508954477238619,0.9643583949385105
3.5226613306653323,0.9597992435974583
3.5363681840920456,0.9580127788719675
3.550075037518759,0.9586250657600602
3.5637818909454726,0.9610870065524505
3.577488744372186,0.9677310515951925
3.591195597798899,0.975297534876277
3.6049024512256125,0.9809317246041643
3.6186093046523258,0.9912841030281777
3.632316158079039,1.0021267224571708
3.6460230115057524,1.0118129121550943
3.659729864932466,1.0214582601021396
3.6734367183591794,1.0309769444814354
3.6871435717858927,1.0374998596258547
3.700850425212606,1.0427054721929272
3.7145572786393193,1.0451062414996082
3.7282641320660326,1.0455616862054449
3.741970985492746,1.044176230089573
3.755677838919459,1.0376881315749724
3.769384692346173,1.033579375326924
3.783091545772886,1.024554968346142
3.7967983991995995,1.0146560794032558
3.810505252626313,1.004260033946917
3.824212106053026,0.993796286536666
3.8379189594797394,0.9824100403339209
3.8516258129064527,0.9736592106664602
3.8653326663331664,0.9644855551839923
3.8790395197598797,0.9578829731483461
3.892746373186593,0.9545546743710674
3.9064532266133063,0.9520706636881848
3.9201600800400196,0.9528409317592617
3.933866933466733,0.9568630144758475
3.947573786893446,0.9604548420086138
3.96128064032016,0.9687803453239932
3.974987493746873,0.9778107218769982
3.9886943471735865,0.9888962568155151
4.0024012006003,0.999635845198435
4.016108054027013,1.010674224008791
4.029814907453726,1.0205584947037483
4.04352176088044,1.030396598801488
4.057228614307153,1.0379352974314744
4.070935467733866,1.0434052494484136
4.08464232116058,1.0474855634222113
4.098349174587293,1.0479098745828332
4.112056028014007,1.0455090793260897
4.12576288144072,1.0427585547926963
4.139469734867434,1.037030515551611
4.153176588294147,1.0267647301310265
4.16688344172086,1.0179165528784826
4.1805902951475735,1.007670234864735
4.194297148574287,0.996811245995822
4.208004002001,0.9846774562626612
4.221710855427713,0.9753717881080224
4.235417708854427,0.9683656384812168
4.24912456228114,0.9596286218650686
4.262831415707853,0.9560505029353877
4.276538269134567,0.952914609963294
4.29024512256128,0.9532411918367808
4.303951975987993,0.9559981805789851
4.317658829414707,0.9621845035720246
4.331365682841421,0.9670339915804914
4.345072536268134,0.9760141440255432
4.358779389694847,0.9862600980422456
4.3724862431215605,0.9960065229099427
4.386193096548274,1.0068411403209656
4.399899949974987,1.0166516163707209
4.4136068034017,1.02544614800936
4.427313656828414,1.0331644884860611
4.441020510255127,1.0373960767931136
4.45472736368184,1.0421070000420132
4.468434217108554,1.0435124698932914
4.482141070535267,1.0424668491013778
4.49584792396198,1.0381711884516671
4.5095547773886935,1.0352885203021347
4.523261630815408,1.0264779460458036
4.536968484242121,1.01876628475747
4.550675337668834,1.009202216250651
4.5643821910955475,1.0005824092149849
4.578089044522261,0.989905376960918
4.591795897948974,0.9829911066679505
4.605502751375687,0.9757355803965359
4.619209604802401,0.9689764094899497
4.632916458229114,0.9646635749000694
4.646623311655827,0.9631140758005576
4.660330165082541,0.9633685278814798
4.674037018509254,0.9643255539263459
4.687743871935967,0.9682149533162117
4.7014507253626805,0.9741450121918261
4.715157578789395,0.9796781890505759
4.728864432216108,0.9882150609945738
4.742571285642821,0.9968557095859558
4.756278139069535,1.0033120935418303
4.769984992496248,1.0130905260422816
4.783691845922961,1.0189918488476488
4.7973986993496744,1.023376091119915
4.811105552776388,1.0274660713152197
4.824812406203101,1.0308069315961301
4.838519259629814,1.0298770860585045
4.852226113056528,1.0304311640267498
4.865932966483241,1.0278676826164146
4.879639819909954,1.02293642884616
4.8933466733366675,1.0191459153832236
4.907053526763381,1.0118399729655538
4.920760380190095,1.0071981037568087
4.934467233616808,1.000054679420791
4.948174087043522,0.9939653498478056
4.961880940470235,0.9889244518697677
4.975587793896948,0.9840441045833386
4.9892946473236615,0.9811246678815531
5.003001500750375,0.9785991030607651
5.016708354177088,0.9777820964211691
5.030415207603801,0.9774761309897193
5.044122061030515,0.9805686680988881
5.057828914457228,0.9843190509887811
5.071535767883941,0.9860695123113283
5.0852426213106545,0.9895257360949318
5.098949474737368,0.995178747014108
5.112656328164081,0.9975716262795756
5.126363181590795,1.003995188367141
5.140070035017509,1.0070473205213717
5.153776888444222,1.008947901387871
5.167483741870935,1.0122084191367753
5.1811905952976485,1.0140998392821143
5.194897448724362,1.0134591686163994
5.208604302151075,1.0146115374673599
5.222311155577788,1.0113424565969837
5.236018009004502,1.009348002345303
5.249724862431215,1.0085203242834306
5.263431715857928,1.004132326629063
5.2771385692846415,1.0024574838512819
5.290845422711355,0.9990452562284207
5.304552276138068,0.9974419296685991
5.318259129564782,0.9957296845342144
5.331965982991496,0.9944939142320499
5.345672836418209,0.993623472813282
5.359379689844922,0.992586533422515
5.3730865432716355,0.9940285143346861
5.386793396698349,0.9947317382802304
5.400500250125062,0.9963299585346262
5.414207103551775,0.9976441950626401
5.427913956978489,0.9994342884129188
5.441620810405202,1.0022504588581977
5.455327663831915,1.004145997414383
5.4690345172586285,1.0053436421350694
5.482741370685342,1.0056246023611133
5.496448224112055,1.0062103179327444
5.510155077538768,1.0054411496687703
5.523861930965483,1.0037913887051735
5.537568784392196,1.0016210755530617
5.551275637818909,0.9991341403665803
5.5649824912456225,0.9989254295249885
5.578689344672336,0.9943195087654134
5.592396198099049,0.9944520228629561
5.606103051525762,0.9913888248016475
5.619809904952476,0.9894067460053114
5.633516758379189,0.9881829761599042
5.647223611805902,0.9873447073188569
5.660930465232616,0.9893376709929941
5.674637318659329,0.9905207277440359
5.688344172086042,0.9926412920143853
5.7020510255127554,0.9957354389588947
5.71575787893947,0.9991707344545084
5.729464732366183,1.0039182122628043
5.743171585792896,1.007648956928861
5.7568784392196095,1.0114042652843631
5.770585292646323,1.0158124571479419
5.784292146073036,1.0170246162135939
5.797998999499749,1.0193746237971857
5.811705852926463,1.0207596814321929
5.825412706353176,1.0203567719011453
5.839119559779889,1.0189335625224751
5.852826413206603,1.0162300298194111
5.866533266633316,1.0110863592152102
5.880240120060029,1.0077423281644409
5.8939469734867425,1.002690628178424
5.907653826913456,0.9965186863352059
5.92136068034017,0.9907842947998116
5.935067533766883,0.9852088809780039
5.9487743871935965,0.9804880354293788
5.96248124062031,0.9754211907210596
5.976188094047023,0.972350335807885
5.989894947473736,0.9697300202076038
6.00360180090045,0.9725594489187348
6.017308654327163,0.9738929177503872
6.031015507753876,0.9769925556699305
6.04472236118059,0.9813201264911392
6.058429214607303,0.9865411176403964
6.072136068034016,0.9930916750829659
6.0858429214607295,1.000248772180442
6.099549774887443,1.0087368762926152
6.113256628314156,1.016700097488405
6.12696348174087,1.0227587133728746
6.1406703351675835,1.0276959491318853
6.154377188594297,1.0318076864015602
6.16808404202101,1.035341414539308
6.181790895447723,1.0362862187046302
6.195497748874437,1.0343326113444047
6.20920460230115,1.031379756738017
6.222911455727863,1.0266413396944516
6.236618309154577,1.0198745985840607
6.25032516258129,1.0119240596124441
6.264032016008003,1.004394157786918
6.2777388694347165,0.9956937771901633
6.29144572286143,0.9857472052085741
6.305152576288143,0.9762808376053751
6.318859429714857,0.9708915648368351
6.3325662831415706,0.963303846026301
6.346273136568284,0.9610995708891964
6.359979989994997,0.9592542536542654
6.37368684342171,0.9580447863196025
6.387393696848424,0.9603911938152828
6.401100550275137,0.96489048074476
6.41480740370185,0.9725097167477448
6.428514257128564,0.980405493362211
6.442221110555277,0.9889223624302522
6.45592796398199,0.9984395679311394
6.4696348174087035,1.009070905015966
6.483341670835417,1.0190361258618423
6.49704852426213,1.0295646634786344
6.510755377688843,1.0363706409277045
6.524462231115558,1.0422931373648914
6.538169084542271,1.0439738464377413
6.551875937968984,1.0471247794700351
6.5655827913956974,1.0452190901195524
6.579289644822411,1.040006582132427
6.592996498249124,1.0340157898066762
6.606703351675837,1.0260623871919894
6.620410205102551,1.017149134505885
6.634117058529264,1.0070039174681713
6.647823911955977,0.9954647202233644
6.6615307653826905,0.9844513409902751
6.675237618809404,0.9757595442708525
6.688944472236117,0.966726057662123
6.70265132566283,0.9586388256097113
6.716358179089544,0.9548298312126612
6.730065032516258,0.9522555109088032
6.743771885942971,0.9513890091015591
6.7574787393696845,0.9547706544244546
6.771185592796398,0.958595060586245
6.784892446223111,0.9666341105362037
6.798599299649824,0.9758650267937268
6.812306153076538,0.9850691219014279
6.826013006503251,0.9963366273884393
6.839719859929964,1.0072832480823188
6.8534267133566775,1.0181326156599892
6.867133566783391,1.0271761991527468
6.880840420210104,1.0358761629398632
6.894547273636817,1.042412235624827
6.908254127063531,1.04606807412371
6.921960980490245,1.048224323348895
6.935667833916958,1.0469128895000284
6.9493746873436715,1.0442235142963563
6.963081540770385,1.0379093962523063
6.976788394197098,1.0299065642227596
6.990495247623811,1.0215212527110968
7.004202101050525,1.0106412668799685
7.017908954477238,0.9991067293338677
7.031615807903951,0.9884627633048285
7.0453226613306645,0.978727859089799
7.059029514757378,0.9692780253930127
7.072736368184091,0.9611351491578775
7.086443221610804,0.9564997381338213
7.100150075037518,0.9539922181767422
7.113856928464231,0.9528441350284166
7.127563781890945,0.9559749019705089
7.1412706353176585,0.959426727986217
7.154977488744372,0.9667153977497686
7.168684342171085,0.9742177631411311
7.182391195597798,0.9834275912288679
7.196098049024512,0.9952793525312729
7.209804902451225,1.0049942508720773
7.223511755877938,1.014708003628995
7.2372186093046516,1.0235934787603205
7.250925462731365,1.031387538843858
7.264632316158078,1.0363489402090502
7.278339169584791,1.04161841769522
7.292046023011505,1.042478892614905
7.305752876438218,1.0421512467863117
7.319459729864932,1.039715704972283
7.3331665832916455,1.0353816030532954
7.346873436718359,1.027624082631849
