time,flux
0.0,1.0246890784111886
0.013706853426713355,1.0274830807227884
0.02741370685342671,1.0317841303225779
0.041120560280140064,1.0338456247722227
0.05482741370685342,1.0331030070403457
0.06853426713356678,1.0320862630769687
0.08224112056028013,1.02922670990525
0.09594797398699349,1.0240871684999193
0.10965482741370684,1.018369017344151
0.1233616808404202,1.0123131551500844
0.13706853426713356,1.0068866911282262
0.1507753876938469,0.9989947946184004
0.16448224112056026,0.9907292203555396
0.1781890945472736,0.9845712523131237
0.19189594797398699,0.9796018889562129
0.20560280140070034,0.9734928195981454
0.21930965482741369,0.9701900686680074
0.23301650825412704,0.9680648220025887
0.2467233616808404,0.9671542505468146
0.26043021510755376,0.9688081224845598
0.2741370685342671,0.9700030014491452
0.28784392196098046,0.9726230322785017
0.3015507753876938,0.9801011842120092
0.31525762881440716,0.9857332509495681
0.3289644822411205,0.9915879799769822
0.34267133566783387,0.9987553140456895
0.3563781890945472,1.0055696713183895
0.3700850425212606,1.0123000092499792
0.38379189594797397,1.0175410170842405
0.3974987493746873,1.0224015202605794
0.41120560280140067,1.0267081080182343
0.424912456228114,1.0314228944051038
0.43861930965482737,1.0309543777817518
0.4523261630815407,1.031335856253408
0.46603301650825407,1.0300879999503967
0.4797398699349674,1.0269784597163818
0.4934467233616808,1.0228617437082095
0.5071535767883941,1.0165346641030342
0.5208604302151075,1.0104542926527584
0.5345672836418208,1.004377744671115
0.5482741370685342,0.9968431603078997
0.5619809904952475,0.9911946654518506
0.5756878439219609,0.9857755189886105
0.5893946973486743,0.9788176637378082
0.6031015507753876,0.9746587288492019
0.616808404202101,0.9712790586293722
0.6305152576288143,0.9699116860253285
0.6442221110555277,0.9702625788559738
0.657928964482241,0.9704501892204374
0.6716358179089544,0.972861758279782
0.6853426713356677,0.9751947093141833
0.6990495247623811,0.9799721788848637
0.7127563781890944,0.9862563267625555
0.7264632316158078,0.9928332635894821
0.7401700850425212,0.999412058338327
0.7538769384692345,1.0048759653221135
0.7675837918959479,1.0115279046203038
0.7812906453226612,1.0165722172686216
0.7949974987493746,1.0207809211954268
0.8087043521760879,1.0253085806735183
0.8224112056028013,1.0266026100003862
0.8361180590295146,1.0296431573806193
0.849824912456228,1.0294901717233778
0.8635317658829413,1.0266392567718603
0.8772386193096547,1.0250214458750233
0.8909454727363681,1.0206662784261284
0.9046523261630814,1.0158314251035316
0.9183591795897948,1.0106911612817489
0.9320660330165081,1.0042967521316235
0.9457728864432215,0.9991528871800852
0.9594797398699348,0.993576783445664
0.9731865932966483,0.9873520638597838
0.9868934467233615,0.9811721195873243
1.000600300150075,0.9772705395623661
1.0143071535767882,0.9750369346559951
1.0280140070035018,0.9732928708094191
1.041720860430215,0.9660873992400986
1.0554277138569284,0.9730193837118664
1.0691345672836416,0.9745313891489961
1.0828414207103552,0.9777163625938985
1.0965482741370685,0.9810557017225633
1.1102551275637818,0.9863607821460498
1.123961980990495,0.991256172829753
1.1376688344172086,0.9966379574831855
1.1513756878439219,1.0016228517822157
1.1650825412706352,1.008849005876066
1.1787893946973487,1.0128048857197982
1.192496248124062,1.018850590484461
1.2062031015507753,1.022186329089136
1.2199099549774886,1.0233634113391958
1.233616808404202,1.0268801195669743
1.2473236618309154,1.0264236342244883
1.2610305152576287,1.025425588493679
1.274737368684342,1.0230539816439221
1.2884442221110555,1.02125193569555
1.3021510755377688,1.0152435406528102
1.315857928964482,1.0113341394238016
1.3295647823911956,1.0066462175380786
1.3432716358179089,1.0014015821013196
1.3569784892446222,0.9963620786280148
1.3706853426713355,0.9898246962036973
1.384392196098049,0.9862043332428926
1.3980990495247623,0.982549694460669
1.4118059029514756,0.9780094994619442
1.4255127563781889,0.9759678778589009
1.4392196098049024,0.9738521178554854
1.4529264632316157,0.9742478993685459
1.466633316658329,0.9752759987395802
1.4803401700850425,0.9776814096555447
1.4940470235117558,0.9806854112599027
1.507753876938469,0.9842689124239213
1.5214607303651824,0.9885905483330278
1.5351675837918959,0.9939236147604683
1.5488744372186092,0.998951210388808
1.5625812906453225,1.0042006632425347
1.5762881440720358,1.0089652108664091
1.5899949974987493,1.0152282435378126
1.6037018509254626,1.0184657834011632
1.6174087043521759,1.0214783731879307
1.6311155577788894,1.0235850284805443
1.6448224112056027,1.0243060143918943
1.658529264632316,1.0253505734640724
1.6722361180590293,1.0241501360526473
1.6859429714857428,1.0223471048228867
1.699649824912456,1.0181504421896745
1.7133566783391694,1.0158603465294647
1.7270635317658827,1.0118144736101795
1.7407703851925962,1.004081279236317
1.7544772386193095,0.999969133500933
1.7681840920460228,0.9951113535125987
1.7818909454727363,0.9896192073538824
1.7955977988994496,0.9840902641588563
1.8093046523261629,0.9807974594607425
1.8230115057528762,0.9755205607370104
1.8367183591795897,0.9747661063390471
1.850425212606303,0.9723893416326526
1.8641320660330163,0.9738594384820318
1.8778389194597296,0.9738358769465436
1.891545772886443,0.9774277712517464
1.9052526263131564,0.9811737356152609
1.9189594797398697,0.985502992892937
1.9326663331665832,0.990133109223598
1.9463731865932965,0.9953780096939969
1.9600800400200098,1.0017099235516453
1.973786893446723,1.007001779117108
1.9874937468734366,1.0116964395902497
2.00120060030015,1.0167669548260088
2.014907453726863,1.0205724999274148
2.0286143071535765,1.023593886654751
2.04232116058029,1.0263972709475513
2.0560280140070035,1.026253429549493
2.069734867433717,1.0276941560262696
2.08344172086043,1.0259482570976255
2.0971485742871434,1.0238639762782589
2.1108554277138567,1.0191113530852145
2.12456228114057,1.0149532200692526
2.1382691345672833,1.0091165676091975
2.1519759879939966,1.002533660045739
2.1656828414207103,0.9976241133603411
2.1793896948474236,0.9918469356923729
2.193096548274137,0.9870011752359005
2.20680340170085,0.9794848661248627
2.2205102551275635,0.9753316842468761
2.234217108554277,0.9731912588046167
2.24792396198099,0.9720927404803219
2.261630815407704,0.9703556931022627
2.275337668834417,0.9734847861948445
2.2890445222611304,0.9741151192892031
2.3027513756878437,0.9782691395382661
2.316458229114557,0.9804830821380693
2.3301650825412703,0.9875576376491063
2.3438719359679836,0.9931337534594579
2.3575787893946973,1.0004179512315738
2.3712856428214106,1.005128754406873
2.384992496248124,1.0129290226765315
2.3986993496748372,1.0190688754603316
2.4124062031015505,1.0229883503099093
2.426113056528264,1.0264062907908251
2.439819909954977,1.029674297145259
2.4535267633816904,1.030631298823863
2.467233616808404,1.0298332675014195
2.4809404702351174,1.0292417297543612
2.4946473236618307,1.0255519597488558
2.508354177088544,1.0220340966543782
2.5220610305152573,1.0161888430586818
2.5357678839419706,1.0100746023889033
2.549474737368684,1.003296462055145
2.5631815907953976,0.9975087522580004
2.576888444222111,0.9907291648394513
2.5905952976488242,0.9842904175926193
2.6043021510755375,0.9789924651189291
2.618009004502251,0.9751279188812864
2.631715857928964,0.9717311780215203
2.6454227113556774,0.9687011361012764
2.659129564782391,0.9678852687545447
2.6728364182091044,0.9700499977228115
2.6865432716358177,0.9714894156797064
2.700250125062531,0.9755745504586397
2.7139569784892443,0.9818841124965286
2.7276638319159576,0.9864337058173386
2.741370685342671,0.9933025397167679
2.755077538769384,1.0000348442700133
2.768784392196098,1.006611482637273
2.7824912456228112,1.012581573813257
2.7961980990495245,1.0199477558147423
2.809904952476238,1.0235093301248808
2.823611805902951,1.0297970627578301
2.8373186593296644,1.0315831500008938
2.8510255127563777,1.033667923179715
2.8647323661830915,1.031454561430038
2.8784392196098048,1.0310855815302946
2.892146073036518,1.0257852443041338
2.9058529264632313,1.02243686802037
2.9195597798899446,1.015709078688698
2.933266633316658,1.010823438921417
2.9469734867433712,1.002628327731701
2.960680340170085,0.9951599078999013
2.9743871935967983,0.9893149077358084
2.9880940470235116,0.9811596672163326
3.001800900450225,0.9770214614914456
3.015507753876938,0.9726047594581274
3.0292146073036514,0.9685947274237076
3.0429214607303647,0.9667831291684079
3.056628314157078,0.9662417690160582
3.0703351675837918,0.968354134592262
3.084042021010505,0.9713497119766615
3.0977488744372184,0.9751169675244357
3.1114557278639317,0.981199625531444
3.125162581290645,0.9874837066972385
3.1388694347173582,0.9940805153377533
3.1525762881440715,1.0002529035813694
3.1662831415707853,1.0080437051783189
3.1799899949974986,1.0158467417932717
3.193696848424212,1.0223082480010293
3.207403701850925,1.0275602884441957
3.2211105552776385,1.0301714992085576
3.2348174087043517,1.0332245016967607
3.248524262131065,1.0326433447820689
3.262231115557779,1.032312842741724
3.275937968984492,1.029437088134277
3.2896448224112054,1.0266980300353528
3.3033516758379187,1.0220055623042632
3.317058529264632,1.015638886816838
3.3307653826913453,1.0099973181740995
3.3444722361180586,1.0009212405368058
3.358179089544772,0.994488346874053
3.3718859429714856,0.9860275032361956
3.385592796398199,0.9805674259332413
3.399299649824912,0.974317970071793
3.4130065032516255,0.9711525246154395
3.4267133566783388,0.9687841073054075
3.440420210105052,0.9668043076873399
3.4541270635317654,0.9674344471556661
3.467833916958479,0.9688236323292012
3.4815407703851924,0.9727663516253756
3.4952476238119057,0.9757357702552728
3.508954477238619,0.9824083893865483
3.5226613306653323,0.9884157823904163
3.5363681840920456,0.9952561217063924
3.550075037518759,1.0023260731673067
3.5637818909454726,1.010111441685845
3.577488744372186,1.0151669114147712
3.591195597798899,1.0214605894575637
3.6049024512256125,1.0268599815034212
3.6186093046523258,1.029270135371861
3.632316158079039,1.0326014416399
3.6460230115057524,1.0335187296271717
3.659729864932466,1.031485237669564
3.6734367183591794,1.0280417632199677
3.6871435717858927,1.0242553723925045
3.700850425212606,1.01794175689272
3.7145572786393193,1.0135711304080317
3.7282641320660326,1.0069009089395051
3.741970985492746,0.9991923096781679
3.755677838919459,0.9915485406874937
3.769384692346173,0.9867813300367408
3.783091545772886,0.9807817145478707
3.7967983991995995,0.9765061846327421
3.810505252626313,0.9716917205949233
3.824212106053026,0.9691036460085803
3.8379189594797394,0.9694025995513421
3.8516258129064527,0.9695534360420835
3.8653326663331664,0.9705150051118178
3.8790395197598797,0.9744168708576947
3.892746373186593,0.9786032733411537
3.9064532266133063,0.9844641958665125
3.9201600800400196,0.9906255097037749
3.933866933466733,0.9959684550365316
3.947573786893446,1.003323610859456
3.96128064032016,1.0098892866855136
3.974987493746873,1.014825884303695
3.9886943471735865,1.0198081499483096
4.0024012006003,1.0246368765291467
4.016108054027013,1.0269009119677663
4.029814907453726,1.028818799425992
4.04352176088044,1.0291922299273042
4.057228614307153,1.027707819120563
4.070935467733866,1.0258462126619297
4.08464232116058,1.0217903540929116
4.098349174587293,1.0170898713341399
4.112056028014007,1.012566032173018
4.12576288144072,1.0070537565842441
4.139469734867434,0.9999264220813602
4.153176588294147,0.9935508025163922
4.16688344172086,0.9881526899484561
4.1805902951475735,0.9832880200200721
4.194297148574287,0.9790981962526482
4.208004002001,0.9749507362044938
4.221710855427713,0.97411716723359
4.235417708854427,0.9719031066042874
4.24912456228114,0.9724143822844894
4.262831415707853,0.9755301722540373
4.276538269134567,0.9758674805471539
4.29024512256128,0.9801702200246075
4.303951975987993,0.9855320491858565
4.317658829414707,0.9903501435846324
4.331365682841421,0.9953852921103945
4.345072536268134,1.0017995962745918
4.358779389694847,1.0073639117898017
4.3724862431215605,1.0124676310334673
4.386193096548274,1.0165961316825585
4.399899949974987,1.0214215543397716
4.4136068034017,1.0237208587449083
4.427313656828414,1.0257668156058974
4.441020510255127,1.0270400277326497
4.45472736368184,1.0259650451648168
4.468434217108554,1.0242537977365773
4.482141070535267,1.0228929570407412
4.49584792396198,1.017662114753732
4.5095547773886935,1.0131407188354473
4.523261630815408,1.0068102362452536
4.536968484242121,1.001875354203643
4.550675337668834,0.9967732922452707
4.5643821910955475,0.9920869889568852
4.578089044522261,0.9871941125339377
4.591795897948974,0.9817878585212548
4.605502751375687,0.9794429552018057
4.619209604802401,0.9752913232041378
4.632916458229114,0.9739166263116542
4.646623311655827,0.9735596868917573
4.660330165082541,0.974164926864269
4.674037018509254,0.9774813914063295
4.687743871935967,0.9788830073723738
4.7014507253626805,0.9830549258007915
4.715157578789395,0.9878420970078648
4.728864432216108,0.9932770424528433
4.742571285642821,0.9973282696825195
4.756278139069535,1.0031949498064106
4.769984992496248,1.0091475342133627
4.783691845922961,1.0145585387660359
4.7973986993496744,1.0179555265271856
4.811105552776388,1.0218938781140736
4.824812406203101,1.0229655060511162
4.838519259629814,1.02521606612786
4.852226113056528,1.0255085608479166
4.865932966483241,1.0245313744912228
4.879639819909954,1.0239733310779449
4.8933466733366675,1.0197557114447673
4.907053526763381,1.0169132350152439
4.920760380190095,1.012565429389664
4.934467233616808,1.0061057853519255
4.948174087043522,1.001127278063799
4.961880940470235,0.9949260590236647
4.975587793896948,0.9907554210898468
4.9892946473236615,0.9853665425802021
5.003001500750375,0.9815858970142395
5.016708354177088,0.9784449741568169
5.030415207603801,0.9758907610401614
5.044122061030515,0.9744522086036328
5.057828914457228,0.9739827059056371
5.071535767883941,0.9759994094023748
5.0852426213106545,0.977610607584535
5.098949474737368,0.9816228916687189
5.112656328164081,0.9843560060324552
5.126363181590795,0.9880344842201232
5.140070035017509,0.9953289094911146
5.153776888444222,0.9995108574464335
5.167483741870935,1.0051421899960131
5.1811905952976485,1.0110645649852388
5.194897448724362,1.0162691650222877
5.208604302151075,1.019727906654583
5.222311155577788,1.0226545663801305
5.236018009004502,1.0251428392056305
5.249724862431215,1.0280850669903805
5.263431715857928,1.0275013332272502
5.2771385692846415,1.0257682586986134
5.290845422711355,1.0237914539310398
5.304552276138068,1.01972741954838
5.318259129564782,1.0143280626583786
5.331965982991496,1.009207259611147
5.345672836418209,1.0031416917101827
5.359379689844922,0.9994556816111324
5.3730865432716355,0.9925185162622774
5.386793396698349,0.9848833062899202
5.400500250125062,0.9821373074847333
5.414207103551775,0.9783223162687058
5.427913956978489,0.9748101286282179
5.441620810405202,0.9731255912300407
5.455327663831915,0.9714097369079666
5.4690345172586285,0.9728291069311411
5.482741370685342,0.973451181360992
5.496448224112055,0.9761183590434145
5.510155077538768,0.9816498348473958
5.523861930965483,0.9864928947710959
5.537568784392196,0.9901224714249223
5.551275637818909,0.998360906681884
5.5649824912456225,1.0033951698892687
5.578689344672336,1.0085753923093286
5.592396198099049,1.0150198891111453
5.606103051525762,1.021128316814567
5.619809904952476,1.02585656609361
5.633516758379189,1.0283807557011253
5.647223611805902,1.0304893220530507
5.660930465232616,1.0301520371723978
5.674637318659329,1.028267008570549
5.688344172086042,1.0272726464633442
5.7020510255127554,1.0227460767072345
5.71575787893947,1.0175654867233181
5.729464732366183,1.0111939398557452
5.743171585792896,1.006238187874941
5.7568784392196095,0.9991742960121694
5.770585292646323,0.993723396184138
5.784292146073036,0.9863399473191641
5.797998999499749,0.9802064308940595
5.811705852926463,0.9780423225057079
5.825412706353176,0.9731198459915179
5.839119559779889,0.9687195696821906
5.852826413206603,0.9695875582479384
5.866533266633316,0.9682048481999274
5.880240120060029,0.9711130433255262
5.8939469734867425,0.9750079539681346
5.907653826913456,0.9779521845010717
5.92136068034017,0.9839987328972042
5.935067533766883,0.9906012294541416
5.9487743871935965,0.997547332277361
5.96248124062031,1.0047692384631008
5.976188094047023,1.0126009740974007
5.989894947473736,1.0184612341954182
6.00360180090045,1.0231841699695143
6.017308654327163,1.0275063507398088
6.031015507753876,1.0289551616609924
6.04472236118059,1.0322692099230306
6.058429214607303,1.0329093067779984
6.072136068034016,1.0308739790336834
6.0858429214607295,1.027650718156356
6.099549774887443,1.0242701536693168
6.113256628314156,1.0194143726474054
6.12696348174087,1.0131019039441163
6.1406703351675835,1.0069509856726413
6.154377188594297,0.9982993610036379
6.16808404202101,0.9915146104566175
6.181790895447723,0.9850700212686448
6.195497748874437,0.9778809142217021
6.20920460230115,0.9733154727403998
6.222911455727863,0.9696916711893123
6.236618309154577,0.9683741931998474
6.25032516258129,0.9661772377636367
6.264032016008003,0.9672771383739356
6.2777388694347165,0.9688472393999252
6.29144572286143,0.9748894806426786
6.305152576288143,0.9788014533079423
6.318859429714857,0.9838207142674861
6.3325662831415706,0.9916671257019248
6.346273136568284,0.9989294443088838
6.359979989994997,1.006498308512428
6.37368684342171,1.012174763234197
6.387393696848424,1.0189152953135896
6.401100550275137,1.0240604725448548
6.41480740370185,1.0296510831056425
6.428514257128564,1.0322762033790194
6.442221110555277,1.0347095677386602
6.45592796398199,1.033613412434907
6.4696348174087035,1.0306552707092802
6.483341670835417,1.0281793583438894
6.49704852426213,1.0240255881510019
6.510755377688843,1.0168228564098252
6.524462231115558,1.010766910485241
6.538169084542271,1.004001250076916
6.551875937968984,0.9969575677858704
6.5655827913956974,0.9892864846523314
6.579289644822411,0.983031491782765
6.592996498249124,0.977141433788716
6.606703351675837,0.9717762639532169
6.620410205102551,0.9674828077257331
6.634117058529264,0.9662289243859865
6.647823911955977,0.9685775974388379
6.6615307653826905,0.9678007043006911
6.675237618809404,0.9705257346094861
6.688944472236117,0.9751484613096831
6.70265132566283,0.9798938720120538
6.716358179089544,0.9861686437434212
6.730065032516258,0.9953395961708826
6.743771885942971,1.0004175426122905
6.7574787393696845,1.0085996223169431
6.771185592796398,1.0131203937298041
6.784892446223111,1.0199966475989057
6.798599299649824,1.02489769846019
6.812306153076538,1.0287121077683417
6.826013006503251,1.0318296088378875
6.839719859929964,1.032481375687201
6.8534267133566775,1.031511065473894
6.867133566783391,1.0295725156893598
6.880840420210104,1.0241562153142358
6.894547273636817,1.0213126197150277
6.908254127063531,1.0161871583709003
6.921960980490245,1.0081915045853285
6.935667833916958,1.0019317224641062
6.9493746873436715,0.995487047196636
6.963081540770385,0.9883686467429651
6.976788394197098,0.9819841973979456
6.990495247623811,0.9778604068641596
7.004202101050525,0.973082089531719
7.017908954477238,0.9711672266560909
7.031615807903951,0.9677697602875482
7.0453226613306645,0.9694139401256577
7.059029514757378,0.9697553558057648
7.072736368184091,0.9739668662170775
7.086443221610804,0.9741890534153419
7.100150075037518,0.9816784795477997
7.113856928464231,0.988484365572169
7.127563781890945,0.9958636336285812
7.1412706353176585,1.000796022558169
7.154977488744372,1.0070787288462186
7.168684342171085,1.0136963548890703
7.182391195597798,1.018824933846417
7.196098049024512,1.0241691347717783
7.209804902451225,1.0264344926400693
7.223511755877938,1.0297190569097658
7.2372186093046516,1.0292534533053406
7.250925462731365,1.029186740287797
7.264632316158078,1.0269593331122597
7.278339169584791,1.0230044702688663
7.292046023011505,1.019283834931951
7.305752876438218,1.013653748056071
7.319459729864932,1.0081244489749135
7.3331665832916455,1.001546565533958
7.346873436718359,0.995006285028473
