time,flux
0.0,1.031896834960523
0.013706853426713355,1.0315187111323776
0.02741370685342671,1.0297593180583362
0.041120560280140064,1.027988305966547
0.05482741370685342,1.0263576687435791
0.06853426713356678,1.0255479785892625
0.08224112056028013,1.0222967087439787
0.09594797398699349,1.0194959006983106
0.10965482741370684,1.0175527517449068
0.1233616808404202,1.0146957629366107
0.13706853426713356,1.0122555005532277
0.1507753876938469,1.009477889584751
0.16448224112056026,1.0061977378344646
0.1781890945472736,1.0043579425360292
0.19189594797398699,1.0015692953835444
0.20560280140070034,0.998070223635147
0.21930965482741369,0.9958244999085002
0.23301650825412704,0.9921048202103016
0.2467233616808404,0.9891804244262619
0.26043021510755376,0.9865716681897733
0.2741370685342671,0.9837843443341132
0.28784392196098046,0.9817335910944621
0.3015507753876938,0.9788148071235828
0.31525762881440716,0.9749368450142079
0.3289644822411205,0.9735799613645136
0.34267133566783387,0.9717051844962808
0.3563781890945472,0.9693004002455654
0.3700850425212606,0.9669289954861762
0.38379189594797397,0.9642695156789612
0.3974987493746873,0.9640037401036123
0.41120560280140067,0.9612826290368002
0.424912456228114,0.960489573306382
0.43861930965482737,0.9588180619694793
0.4523261630815407,0.9571197450799982
0.46603301650825407,0.9572333500772406
0.4797398699349674,0.9571625364603403
0.4934467233616808,0.9581847107752751
0.5071535767883941,0.9580560953180983
0.5208604302151075,0.9539201892475576
0.5345672836418208,0.9587642960488977
0.5482741370685342,0.9599493408322617
0.5619809904952475,0.9614869027413301
0.5756878439219609,0.9623158700831261
0.5893946973486743,0.963607556120142
0.6031015507753876,0.9660953272386829
0.616808404202101,0.9668297139767492
0.6305152576288143,0.9694669262469742
0.6442221110555277,0.9708404704982169
0.657928964482241,0.9737942295612547
0.6716358179089544,0.9766563266371442
0.6853426713356677,0.9790798539714268
0.6990495247623811,0.9831053082644406
0.7127563781890944,0.9864955828950652
0.7264632316158078,0.9872828985914678
0.7401700850425212,0.9913164888092805
0.7538769384692345,0.9950608776177883
0.7675837918959479,0.9982827252929678
0.7812906453226612,1.000717881664727
0.7949974987493746,1.003458579880544
0.8087043521760879,1.0070659614806703
0.8224112056028013,1.008778367315003
0.8361180590295146,1.0135906688257448
0.849824912456228,1.0161431137398973
0.8635317658829413,1.0181739103737808
0.8772386193096547,1.0230265437853305
0.8909454727363681,1.025091125857087
0.9046523261630814,1.0278627930247404
0.9183591795897948,1.0287149782319291
0.9320660330165081,1.0306748852264553
0.9457728864432215,1.0335833133323078
0.9594797398699348,1.0337806407481531
0.9731865932966483,1.0313781232993124
0.9868934467233615,1.0373800696071982
1.000600300150075,1.039192531073751
1.0143071535767882,1.0394655440829563
1.0280140070035018,1.0409842977906116
1.041720860430215,1.0422641551540757
1.0554277138569284,1.0406884129601983
1.0691345672836416,1.0413935209496683
1.0828414207103552,1.0394641126527364
1.0965482741370685,1.040777275326149
1.1102551275637818,1.038239211851482
1.123961980990495,1.0386234659515452
1.1376688344172086,1.0376632939682293
1.1513756878439219,1.036036266334282
1.1650825412706352,1.0331969291663812
1.1787893946973487,1.0331363614584972
1.192496248124062,1.0293176594909896
1.2062031015507753,1.0287446237805966
1.2199099549774886,1.026473042486324
1.233616808404202,1.0246336798991875
1.2473236618309154,1.0207812699180923
1.2610305152576287,1.0187009305905603
1.274737368684342,1.0154967730998172
1.2884442221110555,1.0137995583173751
1.3021510755377688,1.0102095358056784
1.315857928964482,1.0075082955518269
1.3295647823911956,1.0043602001482566
1.3432716358179089,1.0021258195772464
1.3569784892446222,0.9998777591630008
1.3706853426713355,0.9973519531829135
1.384392196098049,0.9938680525915411
1.3980990495247623,0.9906579293276702
1.4118059029514756,0.9880914108301504
1.4255127563781889,0.9853848553332709
1.4392196098049024,0.9828778474051895
1.4529264632316157,0.9816612783272124
1.466633316658329,0.9776381931574282
1.4803401700850425,0.9757133718104332
1.4940470235117558,0.9759069813358652
1.507753876938469,0.9730818343370506
1.5214607303651824,0.972342244958943
1.5351675837918959,0.9705262109668564
1.5488744372186092,0.9703423475066417
1.5625812906453225,0.9687630178187561
1.5762881440720358,0.9673405119505667
1.5899949974987493,0.9687016856580942
1.6037018509254626,0.9678324035254371
1.6174087043521759,0.9666190447754357
1.6311155577788894,0.9673145167435548
1.6448224112056027,0.9678575799977156
1.658529264632316,0.9682412448951251
1.6722361180590293,0.9691203651099409
1.6859429714857428,0.9689503650679772
1.699649824912456,0.9702054251470135
1.7133566783391694,0.9713294327177004
1.7270635317658827,0.9722514077382899
1.7407703851925962,0.9738209095155479
1.7544772386193095,0.9764717721421583
1.7681840920460228,0.9774004113869157
1.7818909454727363,0.9775207747681909
1.7955977988994496,0.9806436400608898
1.8093046523261629,0.9838271494965474
1.8230115057528762,0.9861827246463151
1.8367183591795897,0.9867234059662782
1.850425212606303,0.9884370123588115
1.8641320660330163,0.9914508960835757
1.8778389194597296,0.9940300380049141
1.891545772886443,0.9972972285016047
1.9052526263131564,0.9990731982646341
1.9189594797398697,1.000633293807173
1.9326663331665832,1.0030614192068086
1.9463731865932965,1.006342470477473
1.9600800400200098,1.0068625671266478
1.973786893446723,1.0084090021911476
1.9874937468734366,1.0093062680249612
2.00120060030015,1.0117241356032953
2.014907453726863,1.0150461034330736
2.0286143071535765,1.0162541777206058
2.04232116058029,1.016490955088123
2.0560280140070035,1.0187004678594285
2.069734867433717,1.0193726038056279
2.08344172086043,1.0200909138054761
2.0971485742871434,1.0218716242870558
2.1108554277138567,1.0214081333084488
2.12456228114057,1.0230449625545983
2.1382691345672833,1.0227297256528929
2.1519759879939966,1.0201902524319881
2.1656828414207103,1.022622211416361
2.1793896948474236,1.0218025167456672
2.193096548274137,1.0215059020662953
2.20680340170085,1.0213517791300957
2.2205102551275635,1.018884848831943
2.234217108554277,1.0189915255148045
2.24792396198099,1.0175252595283277
2.261630815407704,1.0171445706547795
2.275337668834417,1.0159594314065508
2.2890445222611304,1.0134644435173592
2.3027513756878437,1.012810616806006
2.316458229114557,1.0109437558798686
2.3301650825412703,1.0094789012482133
2.3438719359679836,1.00783127506517
2.3575787893946973,1.006554452118246
2.3712856428214106,1.0052814455554544
2.384992496248124,1.0024547184041734
2.3986993496748372,1.0015017600962823
2.4124062031015505,0.9988161858360805
2.426113056528264,0.9976253067707093
2.439819909954977,0.9958551145418257
2.4535267633816904,0.9953974372574921
2.467233616808404,0.9936152363928336
2.4809404702351174,0.9926645783688197
2.4946473236618307,0.9916132325700953
2.508354177088544,0.9898511298222497
2.5220610305152573,0.9882057260902707
2.5357678839419706,0.9866403566800405
2.549474737368684,0.9858753175402251
2.5631815907953976,0.985992128894374
2.576888444222111,0.9848860340936426
2.5905952976488242,0.9856230650138456
2.6043021510755375,0.9845110429564022
2.618009004502251,0.9836875126820147
2.631715857928964,0.9849037369460334
2.6454227113556774,0.9845445505071122
2.659129564782391,0.9840095608595183
2.6728364182091044,0.9849010227438002
2.6865432716358177,0.9863679444008163
2.700250125062531,0.9860286680726993
2.7139569784892443,0.9846127641993576
2.7276638319159576,0.986733471761148
2.741370685342671,0.9886446932727955
2.755077538769384,0.9901457891106743
2.768784392196098,0.9910288080885202
2.7824912456228112,0.9929012930224337
2.7961980990495245,0.9934938396371187
2.809904952476238,0.9970023034080001
2.823611805902951,0.9965270895894726
2.8373186593296644,0.9986005085613354
2.8510255127563777,0.9999931703625857
2.8647323661830915,1.0019963815966213
2.8784392196098048,1.0046191885678835
2.892146073036518,1.0056199650366449
2.9058529264632313,1.0071062576024277
2.9195597798899446,1.0083238381146875
2.933266633316658,1.0106108271127827
2.9469734867433712,1.0112727152984107
2.960680340170085,1.012670511631747
2.9743871935967983,1.0135646556792608
2.9880940470235116,1.0158641144283884
3.001800900450225,1.0164876652241799
3.015507753876938,1.017270009309064
3.0292146073036514,1.019095499858782
3.0429214607303647,1.0193427653794662
3.056628314157078,1.018993386429667
3.0703351675837918,1.020879615073719
3.084042021010505,1.021398488889844
3.0977488744372184,1.0218868697396826
3.1114557278639317,1.0213942336200768
3.125162581290645,1.021127947168505
3.1388694347173582,1.0205904238418304
3.1525762881440715,1.0199853509740187
3.1662831415707853,1.018249294657444
3.1799899949974986,1.0187753057202946
3.193696848424212,1.0175207239525685
3.207403701850925,1.016114756687077
3.2211105552776385,1.0154850392264827
3.2348174087043517,1.0134909338709517
3.248524262131065,1.0130486924116289
3.262231115557779,1.010642170066732
3.275937968984492,1.010051410327896
3.2896448224112054,1.0071625652719818
3.3033516758379187,1.0054925398964065
3.317058529264632,1.0030551100175593
3.3307653826913453,0.9999381879822279
3.3444722361180586,1.0020125825603454
3.358179089544772,0.9980468920667288
3.3718859429714856,0.9953794269709978
3.385592796398199,0.992303463160568
3.399299649824912,0.9915454802143655
3.4130065032516255,0.9880214507974887
3.4267133566783388,0.9866272030521079
3.440420210105052,0.9828199000616944
3.4541270635317654,0.9811731633471377
3.467833916958479,0.9807773926496998
3.4815407703851924,0.9782972077617715
3.4952476238119057,0.9770905418858951
3.508954477238619,0.9761962185203855
3.5226613306653323,0.9739768554503865
3.5363681840920456,0.9715658243188299
3.550075037518759,0.9702706675152923
3.5637818909454726,0.9694100405541166
3.577488744372186,0.969275170679227
3.591195597798899,0.9683537848635764
3.6049024512256125,0.9691229105653281
3.6186093046523258,0.9677480944520215
3.632316158079039,0.9676180913180505
3.6460230115057524,0.9675564937231725
3.659729864932466,0.9676752368555472
3.6734367183591794,0.9674909829987423
3.6871435717858927,0.9696527918388138
3.700850425212606,0.9706739242774047
3.7145572786393193,0.9722996822910351
3.7282641320660326,0.9728567085409591
3.741970985492746,0.9746142760883051
3.755677838919459,0.975188252841072
3.769384692346173,0.9767912415235225
3.783091545772886,0.9792032572017205
3.7967983991995995,0.9819752585722645
3.810505252626313,0.9837714426752897
3.824212106053026,0.9858529558759135
3.8379189594797394,0.9883386209069887
3.8516258129064527,0.9916121025248023
3.8653326663331664,0.9943759616021642
3.8790395197598797,0.9970935556448283
3.892746373186593,0.9997264667283338
3.9064532266133063,1.0031039464810791
3.9201600800400196,1.0065056319062815
3.933866933466733,1.006984013619286
3.947573786893446,1.0117631130003764
3.96128064032016,1.0127240870793481
3.974987493746873,1.0154092973529758
3.9886943471735865,1.01858621770811
4.0024012006003,1.0220673083985743
4.016108054027013,1.023135306002944
4.029814907453726,1.025719296223129
4.04352176088044,1.0285829599291512
4.057228614307153,1.030316595475788
4.070935467733866,1.0321135513982158
4.08464232116058,1.0333708830099428
4.098349174587293,1.036226493250747
4.112056028014007,1.036285571028466
4.12576288144072,1.0392646030737775
4.139469734867434,1.0397833179065707
4.153176588294147,1.0394904377972447
4.16688344172086,1.0403251993761686
4.1805902951475735,1.041452258748372
4.194297148574287,1.0416788710817348
4.208004002001,1.0400407213834486
4.221710855427713,1.040369351480005
4.235417708854427,1.0397532764499309
4.24912456228114,1.0391567697638593
4.262831415707853,1.0382225048181035
4.276538269134567,1.0357697062324738
4.29024512256128,1.0344123997663401
4.303951975987993,1.0338328512590653
4.317658829414707,1.032301163774018
4.331365682841421,1.0281511149830405
4.345072536268134,1.0257401784428577
4.358779389694847,1.0250442062046463
4.3724862431215605,1.0220972238253034
4.386193096548274,1.0187717729159322
4.399899949974987,1.0164368674995583
4.4136068034017,1.0130129691485685
4.427313656828414,1.0107771737784457
4.441020510255127,1.0079454065389675
4.45472736368184,1.003905230404541
4.468434217108554,1.0001229560176912
4.482141070535267,0.9977640129067099
4.49584792396198,0.9946682564818983
4.5095547773886935,0.9925953644438944
4.523261630815408,0.9877738198449678
4.536968484242121,0.9858587599536355
4.550675337668834,0.9824617473076552
4.5643821910955475,0.9787933376880089
4.578089044522261,0.9758141331129259
4.591795897948974,0.9735094528570367
4.605502751375687,0.9719468120090536
4.619209604802401,0.9691871753578635
4.632916458229114,0.9675274896276512
4.646623311655827,0.9658966212611225
4.660330165082541,0.9627157154512038
4.674037018509254,0.9614424330603867
4.687743871935967,0.9607640767580332
4.7014507253626805,0.9592435720945742
4.715157578789395,0.9593377951363606
4.728864432216108,0.9579522329788956
4.742571285642821,0.958264868372601
4.756278139069535,0.9585851657375778
4.769984992496248,0.9575304224533938
4.783691845922961,0.957369991750541
4.7973986993496744,0.957980353369664
4.811105552776388,0.9593304658569254
4.824812406203101,0.9594012697240423
4.838519259629814,0.9619998727022698
4.852226113056528,0.9627693382649893
4.865932966483241,0.9648908796946927
4.879639819909954,0.9664232532843181
4.8933466733366675,0.9681788789098221
4.907053526763381,0.9713809124838834
4.920760380190095,0.9729326781037948
4.934467233616808,0.9753370776297409
4.948174087043522,0.9786826944065953
4.961880940470235,0.9804381304817266
4.975587793896948,0.9843617052692908
4.9892946473236615,0.9870676252634457
5.003001500750375,0.9894498740784029
5.016708354177088,0.9919664228589805
5.030415207603801,0.9961182760280375
5.044122061030515,0.9980161451680631
5.057828914457228,1.0007704971953335
5.071535767883941,1.0047302234734292
5.0852426213106545,1.0069770406549887
5.098949474737368,1.0104192346232161
5.112656328164081,1.0123865202542615
5.126363181590795,1.0160347768674118
5.140070035017509,1.018110202885314
5.153776888444222,1.02044856629981
5.167483741870935,1.0233519329948138
5.1811905952976485,1.0244927204343786
5.194897448724362,1.0273704607209928
5.208604302151075,1.029592438552137
5.222311155577788,1.0301302092366376
5.236018009004502,1.0325243803971986
5.249724862431215,1.0339424835655453
5.263431715857928,1.0345097569930624
5.2771385692846415,1.0340680308433476
5.290845422711355,1.0343691825285732
5.304552276138068,1.0353030711195526
5.318259129564782,1.0363141461676733
5.331965982991496,1.0375072333784108
5.345672836418209,1.035326817194989
5.359379689844922,1.0340634978418797
5.3730865432716355,1.0341490546208998
5.386793396698349,1.033456735393419
5.400500250125062,1.0331030103110512
5.414207103551775,1.0311224436102282
5.427913956978489,1.030276944179932
5.441620810405202,1.0294568302862594
5.455327663831915,1.0271000247178974
5.4690345172586285,1.024809078385615
5.482741370685342,1.0223540980808299
5.496448224112055,1.0201685753975427
5.510155077538768,1.018722507372559
5.523861930965483,1.0169099374474875
5.537568784392196,1.014378916366969
5.551275637818909,1.012193904730084
5.5649824912456225,1.009503749757536
5.578689344672336,1.005581901359002
5.592396198099049,1.0039815148949902
5.606103051525762,1.0029281023952556
5.619809904952476,1.0000473636088567
5.633516758379189,0.9967407686091815
5.647223611805902,0.9950537906826011
5.660930465232616,0.992545329670925
5.674637318659329,0.9907915724547289
5.688344172086042,0.9882082910607558
5.7020510255127554,0.9857052195920327
5.71575787893947,0.985174390596774
5.729464732366183,0.9834435302105031
5.743171585792896,0.9822111848064377
5.7568784392196095,0.9791260479853575
5.770585292646323,0.9801532932583505
5.784292146073036,0.9766207678510223
5.797998999499749,0.9774959707742661
5.811705852926463,0.9764976446961323
5.825412706353176,0.9770236294535367
5.839119559779889,0.9754695188860536
5.852826413206603,0.9758166280456836
5.866533266633316,0.9757467769308555
5.880240120060029,0.9750586017736064
5.8939469734867425,0.9753846776953292
5.907653826913456,0.9747222061713873
5.92136068034017,0.9757304195010319
5.935067533766883,0.9770071508808835
5.9487743871935965,0.9779220532265276
5.96248124062031,0.9778965875806058
5.976188094047023,0.979006631014834
5.989894947473736,0.9818620157510407
6.00360180090045,0.983140713403416
6.017308654327163,0.9835853868076777
6.031015507753876,0.9856507370520894
6.04472236118059,0.9889376603522141
6.058429214607303,0.9885563877434081
6.072136068034016,0.9922972582867758
6.0858429214607295,0.9925595132897397
6.099549774887443,0.9954179649406222
6.113256628314156,0.9975965931379209
6.12696348174087,0.9982435176206924
6.1406703351675835,1.0012342658614648
6.154377188594297,1.0022703527653132
6.16808404202101,1.0043531756357549
6.181790895447723,1.0061833014091344
6.195497748874437,1.0076613863779265
6.20920460230115,1.0084148651967413
6.222911455727863,1.0104195277632735
6.236618309154577,1.011133695077226
6.25032516258129,1.0114781583592316
6.264032016008003,1.013006459559442
6.2777388694347165,1.0128874942133572
6.29144572286143,1.0146391143429494
6.305152576288143,1.0147858008131991
6.318859429714857,1.0159458323545265
6.3325662831415706,1.0152406688617226
6.346273136568284,1.0161291306455422
6.359979989994997,1.016561396860942
6.37368684342171,1.0155385532168042
6.387393696848424,1.01741656096481
6.401100550275137,1.0159924202545674
6.41480740370185,1.0153935051044571
6.428514257128564,1.015660986288035
6.442221110555277,1.0137704479909584
6.45592796398199,1.012761894775009
6.4696348174087035,1.0108981888444868
6.483341670835417,1.0116628684904105
6.49704852426213,1.009859734184565
6.510755377688843,1.008422385597773
6.524462231115558,1.006533092578084
6.538169084542271,1.0053783629760202
6.551875937968984,1.0033419773458965
6.5655827913956974,1.0035005180515317
6.579289644822411,1.0000165092333986
6.592996498249124,0.9980935066208378
6.606703351675837,0.9974584910392709
6.620410205102551,0.9956877472406465
6.634117058529264,0.9939828470198142
6.647823911955977,0.9918835498486762
6.6615307653826905,0.9911320182257027
6.675237618809404,0.9905163020593102
6.688944472236117,0.9879985057944382
6.70265132566283,0.9879457883663458
6.716358179089544,0.9858991472136405
6.730065032516258,0.9843048483222286
6.743771885942971,0.984337413560547
6.7574787393696845,0.9853098824420848
6.771185592796398,0.9831715104585761
6.784892446223111,0.9806289611907596
6.798599299649824,0.9821155323909146
6.812306153076538,0.9812076183461658
6.826013006503251,0.9826439095336056
6.839719859929964,0.9813722460625941
6.8534267133566775,0.982943785961191
6.867133566783391,0.983107825592076
6.880840420210104,0.9832564758698124
6.894547273636817,0.9834078068306811
6.908254127063531,0.9837685533503414
6.921960980490245,0.9851044857659788
6.935667833916958,0.987071304762933
6.9493746873436715,0.9872875351611197
6.963081540770385,0.9897134097247619
6.976788394197098,0.9901932394952482
6.990495247623811,0.9934253491493319
7.004202101050525,0.9936514237724522
7.017908954477238,0.9956546289774688
7.031615807903951,0.9974590625380286
7.0453226613306645,1.0003536992887376
7.059029514757378,1.0005410771616832
7.072736368184091,1.0023723218346723
7.086443221610804,1.0063398692167862
7.100150075037518,1.0072196808433458
7.113856928464231,1.0080976903392918
7.127563781890945,1.0109320725182775
7.1412706353176585,1.0130690356073846
7.154977488744372,1.014954022297751
7.168684342171085,1.0166638180783782
7.182391195597798,1.0181288296859152
7.196098049024512,1.019589722589193
7.209804902451225,1.0218401692730406
7.223511755877938,1.0232838634399948
7.2372186093046516,1.0237670626015078
7.250925462731365,1.0251486682300295
7.264632316158078,1.0271068943657642
7.278339169584791,1.0280774776607045
7.292046023011505,1.0276899300689997
7.305752876438218,1.0292400656030767
7.319459729864932,1.0292610250123801
7.3331665832916455,1.0280401187576897
