time,flux
0.0,1.0047339511100408
0.013706853426713355,1.0002640860936207
0.02741370685342671,0.9960386774084486
0.041120560280140064,0.9922759864488228
0.05482741370685342,0.9875307312141206
0.06853426713356678,0.9851061509681929
0.08224112056028013,0.981681476978814
0.09594797398699349,0.9824701690205571
0.10965482741370684,0.9818358521834284
0.1233616808404202,0.9825393103935625
0.13706853426713356,0.9844400423674697
0.1507753876938469,0.9849163126041842
0.16448224112056026,0.9892877258079459
0.1781890945472736,0.9941734280616699
0.19189594797398699,0.997696672275266
0.20560280140070034,1.003403655630607
0.21930965482741369,1.0073241193881497
0.23301650825412704,1.0113174137677183
0.2467233616808404,1.0148932674568658
0.26043021510755376,1.0170082221041885
0.2741370685342671,1.0193023135623824
0.28784392196098046,1.0181570390721097
0.3015507753876938,1.0193840138929198
0.31525762881440716,1.0171210761310527
0.3289644822411205,1.0147867389875413
0.34267133566783387,1.01149265701668
0.3563781890945472,1.005741903853703
0.3700850425212606,1.0017051629885252
0.38379189594797397,0.9987292100743134
0.3974987493746873,0.9925884315703899
0.41120560280140067,0.9871175529283999
0.424912456228114,0.9855505150009818
0.43861930965482737,0.9807932829872009
0.4523261630815407,0.9808515663693644
0.46603301650825407,0.9791833211560974
0.4797398699349674,0.9808583955905302
0.4934467233616808,0.9812554459412757
0.5071535767883941,0.9851500679772068
0.5208604302151075,0.9875166446477656
0.5345672836418208,0.9916683168897232
0.5482741370685342,0.9972890339451704
0.5619809904952475,1.0013640768320258
0.5756878439219609,1.006131204797684
0.5893946973486743,1.0116492187583872
0.6031015507753876,1.015579968912337
0.616808404202101,1.0163780439435635
0.6305152576288143,1.020944954432766
0.6442221110555277,1.0210968345380749
0.657928964482241,1.02106028174749
0.6716358179089544,1.0199551648930683
0.6853426713356677,1.016036167937371
0.6990495247623811,1.0125415853299513
0.7127563781890944,1.0077125139865686
0.7264632316158078,1.0019817796590513
0.7401700850425212,0.9976948825415167
0.7538769384692345,0.9931747066504867
0.7675837918959479,0.9900414342238456
0.7812906453226612,0.9863785286662777
0.7949974987493746,0.9806439493797089
0.8087043521760879,0.9791293724519989
0.8224112056028013,0.9773867131724371
0.8361180590295146,0.976248320145674
0.849824912456228,0.9795697940739724
0.8635317658829413,0.9829764556571301
0.8772386193096547,0.98474761719031
0.8909454727363681,0.9879713628929239
0.9046523261630814,0.996757986347121
0.9183591795897948,1.0006024820955448
0.9320660330165081,1.005656154850893
0.9457728864432215,1.0101255586095397
0.9594797398699348,1.0149289283310874
0.9731865932966483,1.0208020758323797
0.9868934467233615,1.0210999258149869
1.000600300150075,1.0206682641917524
1.0143071535767882,1.021376250901199
1.0280140070035018,1.0195304112599508
1.041720860430215,1.018380361371194
1.0554277138569284,1.014672453057613
1.0691345672836416,1.0099679148425247
1.0828414207103552,1.0054015579254933
1.0965482741370685,0.9997382254701361
1.1102551275637818,0.9942410190437465
1.123961980990495,0.9905397746656409
1.1376688344172086,0.9848766997172493
1.1513756878439219,0.9819344136811251
1.1650825412706352,0.9779653309423253
1.1787893946973487,0.9799956111844744
1.192496248124062,0.9787902865323057
1.2062031015507753,0.9785315338473626
1.2199099549774886,0.9819633648320747
1.233616808404202,0.9842347028020527
1.2473236618309154,0.9897772542225729
1.2610305152576287,0.9934567567475605
1.274737368684342,0.9975881384384445
1.2884442221110555,1.0033486562797322
1.3021510755377688,1.009212563754488
1.315857928964482,1.0149339178711747
1.3295647823911956,1.0174975863642692
1.3432716358179089,1.0214351388671243
1.3569784892446222,1.0211084192905813
1.3706853426713355,1.022559560318251
1.384392196098049,1.022673884579057
1.3980990495247623,1.0176685985616476
1.4118059029514756,1.0149686997831522
1.4255127563781889,1.0124261615754173
1.4392196098049024,1.0080573162216064
1.4529264632316157,1.0013920737517539
1.466633316658329,0.9971238876463018
1.4803401700850425,0.9905477605694476
1.4940470235117558,0.9849864041829575
1.507753876938469,0.9832762214082773
1.5214607303651824,0.9797399959243329
1.5351675837918959,0.9781366676144853
1.5488744372186092,0.9778279670989329
1.5625812906453225,0.9786004478390113
1.5762881440720358,0.9804457457461453
1.5899949974987493,0.9802314296823154
1.6037018509254626,0.9876490225134977
1.6174087043521759,0.9919556917942167
1.6311155577788894,0.9969703963651155
1.6448224112056027,1.0024630825154186
1.658529264632316,1.0077522135860342
1.6722361180590293,1.0116748875920574
1.6859429714857428,1.015855101789698
1.699649824912456,1.0204415817121963
1.7133566783391694,1.022936751300966
1.7270635317658827,1.021418667829372
1.7407703851925962,1.0212109238863738
1.7544772386193095,1.020104754568346
1.7681840920460228,1.0163158977398208
1.7818909454727363,1.0124266152489085
1.7955977988994496,1.009558507549979
1.8093046523261629,1.003630305504974
1.8230115057528762,0.9987453050468367
1.8367183591795897,0.993471733395876
1.850425212606303,0.9875879523025302
1.8641320660330163,0.9852256957437461
1.8778389194597296,0.9828880502866573
1.891545772886443,0.9812167210654194
1.9052526263131564,0.980630964010562
1.9189594797398697,0.9795998808203534
1.9326663331665832,0.9813440636450874
1.9463731865932965,0.9853576789791113
1.9600800400200098,0.9868816940505188
1.973786893446723,0.9907063134602061
1.9874937468734366,0.9935337294808855
2.00120060030015,1.0009997259608574
2.014907453726863,1.0057837201357211
2.0286143071535765,1.0094415584618284
2.04232116058029,1.0146684815674143
2.0560280140070035,1.0161910135137833
2.069734867433717,1.0201767890131603
2.08344172086043,1.0195933102805406
2.0971485742871434,1.0212459977851993
2.1108554277138567,1.0184878364714016
2.12456228114057,1.0164598713083683
2.1382691345672833,1.0125396922153935
2.1519759879939966,1.0102181539906128
2.1656828414207103,1.004752096174345
2.1793896948474236,0.9979820129829585
2.193096548274137,0.9956531910950831
2.20680340170085,0.9911768199981388
2.2205102551275635,0.9864719738341211
2.234217108554277,0.9831116806262303
2.24792396198099,0.9807182654271964
2.261630815407704,0.9802356367732289
2.275337668834417,0.9818355817574335
2.2890445222611304,0.9817182122458212
2.3027513756878437,0.9849868627677568
2.316458229114557,0.9884329946019739
2.3301650825412703,0.9895567911817067
2.3438719359679836,0.996287616013795
2.3575787893946973,0.9995645791280807
2.3712856428214106,1.0040097105317027
2.384992496248124,1.0069915658584814
2.3986993496748372,1.0120080662121875
2.4124062031015505,1.015532204349919
2.426113056528264,1.0167799493604415
2.439819909954977,1.0193893162998662
2.4535267633816904,1.0175963869397582
2.467233616808404,1.0151146499498003
2.4809404702351174,1.0152261727360619
2.4946473236618307,1.0113627131088154
2.508354177088544,1.0083508387161229
2.5220610305152573,1.004198410920635
2.5357678839419706,1.002456503482932
2.549474737368684,0.9978770888924848
2.5631815907953976,0.992854148262866
2.576888444222111,0.9880925817732094
2.5905952976488242,0.9874628988036687
2.6043021510755375,0.9845594380043202
2.618009004502251,0.9826543348503767
2.631715857928964,0.9833446162920829
2.6454227113556774,0.9853073308299622
2.659129564782391,0.9845923140792214
2.6728364182091044,0.9888631988866388
2.6865432716358177,0.9933957303999943
2.700250125062531,0.994714400375469
2.7139569784892443,0.999843902329262
2.7276638319159576,1.00343841846093
2.741370685342671,1.0041826594007832
2.755077538769384,1.0084490025901411
2.768784392196098,1.012139184374013
2.7824912456228112,1.0140048393317205
2.7961980990495245,1.0153893620200083
2.809904952476238,1.0144934133430392
2.823611805902951,1.0143665428086994
2.8373186593296644,1.011055079699028
2.8510255127563777,1.008631534133244
2.8647323661830915,1.0091138187488975
2.8784392196098048,1.0048975534582174
2.892146073036518,0.9993412969197962
2.9058529264632313,0.9967033237164095
2.9195597798899446,0.9959409425041558
2.933266633316658,0.9925056086131135
2.9469734867433712,0.9917031226109727
2.960680340170085,0.988391496127695
2.9743871935967983,0.9867070753739651
2.9880940470235116,0.9869422723214252
3.001800900450225,0.9869588029703253
3.015507753876938,0.990239763723501
3.0292146073036514,0.9911608542254384
3.0429214607303647,0.9938771636854804
3.056628314157078,0.9956846481251777
3.0703351675837918,0.9990059807173554
3.084042021010505,1.0045567932068642
3.0977488744372184,1.0035004047060987
3.1114557278639317,1.0073418874729656
3.125162581290645,1.008363279193907
3.1388694347173582,1.010356092390757
3.1525762881440715,1.0105511674767362
3.1662831415707853,1.0106639139592533
3.1799899949974986,1.0113680828141502
3.193696848424212,1.0091071841861459
3.207403701850925,1.0070031907977903
3.2211105552776385,1.0037319504471447
3.2348174087043517,1.004421686178493
3.248524262131065,1.000740039631363
3.262231115557779,0.9990696796860588
3.275937968984492,0.9966734538765031
3.2896448224112054,0.993113434478087
3.3033516758379187,0.9924636997960784
3.317058529264632,0.9920193910151691
3.3307653826913453,0.9884521205504421
3.3444722361180586,0.9909719612567294
3.358179089544772,0.990883709098193
3.3718859429714856,0.993074452048298
3.385592796398199,0.9945675593592566
3.399299649824912,0.9966227391641262
3.4130065032516255,0.9993085026743866
3.4267133566783388,0.9975302792137266
3.440420210105052,1.0026018381292472
3.4541270635317654,1.0040348113678306
3.467833916958479,1.0041713737944078
3.4815407703851924,1.0059926094200673
3.4952476238119057,1.0085957243986177
3.508954477238619,1.006960181537553
3.5226613306653323,1.007890168538933
3.5363681840920456,1.0077012969414907
3.550075037518759,1.0079015905936872
3.5637818909454726,1.004238677534964
3.577488744372186,1.0028359726808096
3.591195597798899,0.9999073294056491
3.6049024512256125,0.9996648008812555
3.6186093046523258,0.9972691602700117
3.632316158079039,0.9969917558481388
3.6460230115057524,0.9949776407688147
3.659729864932466,0.9947563433281899
3.6734367183591794,0.9950970312070317
3.6871435717858927,0.9958516906367266
3.700850425212606,0.9939978676724239
3.7145572786393193,0.9948387215416093
3.7282641320660326,0.9973652681705625
3.741970985492746,0.9964971066905923
3.755677838919459,1.0000454845165487
3.769384692346173,0.9995467707728902
3.783091545772886,1.0023758771132656
3.7967983991995995,1.0023195668073546
3.810505252626313,1.0028007632995095
3.824212106053026,1.0038571204531994
3.8379189594797394,1.0034551619936565
3.8516258129064527,1.0038877611760868
3.8653326663331664,1.0036976128686343
3.8790395197598797,1.0036363227089273
3.892746373186593,1.001964338364181
3.9064532266133063,0.9998956852636087
3.9201600800400196,0.9994675522421114
3.933866933466733,1.000473439347181
3.947573786893446,0.9962758476283918
3.96128064032016,0.9966424239395185
3.974987493746873,0.9959830350816052
3.9886943471735865,0.9964273479068406
4.0024012006003,0.995324976722494
4.016108054027013,0.9964676453895743
4.029814907453726,0.9973366596244029
4.04352176088044,0.9966369810669707
4.057228614307153,0.9967574453100815
4.070935467733866,0.9995881077407515
4.08464232116058,1.0001334770471273
4.098349174587293,1.0021952895494084
4.112056028014007,1.001760861043923
4.12576288144072,1.005037639603281
4.139469734867434,1.0053946823165245
4.153176588294147,1.0026964657239659
4.16688344172086,1.0047684656231806
4.1805902951475735,1.0035996473014528
4.194297148574287,1.0021363367502498
4.208004002001,1.0033714505279887
4.221710855427713,0.9996068001610563
4.235417708854427,0.9994915916489293
4.24912456228114,0.9977464287809944
4.262831415707853,0.9984774415929933
4.276538269134567,0.9959449554214759
4.29024512256128,0.9957383141680506
4.303951975987993,0.9952654774975321
4.317658829414707,0.9937490843786281
4.331365682841421,0.9936856109143375
4.345072536268134,0.9942312629660532
4.358779389694847,0.9985508433730171
4.3724862431215605,0.9973671789943708
4.386193096548274,0.9982264790474065
4.399899949974987,1.0025900480854286
4.4136068034017,1.001651564599121
4.427313656828414,1.002264805450669
4.441020510255127,1.0049947694641876
4.45472736368184,1.0075160213421757
4.468434217108554,1.0044928134581346
4.482141070535267,1.0055442890828807
4.49584792396198,1.0058475784797671
4.5095547773886935,1.0074446961330814
4.523261630815408,1.0041688871609888
4.536968484242121,1.005663907004746
4.550675337668834,1.0012646175343696
4.5643821910955475,0.99979895712342
4.578089044522261,0.9974705529990203
4.591795897948974,0.9988123579361653
4.605502751375687,0.9956230734767025
4.619209604802401,0.992699201063986
4.632916458229114,0.9913547056476137
4.646623311655827,0.9908680646044314
4.660330165082541,0.9909880511803826
4.674037018509254,0.9911682605070826
4.687743871935967,0.993728022477732
4.7014507253626805,0.9926334533602105
4.715157578789395,0.9948099443017321
4.728864432216108,0.9975103384736234
4.742571285642821,0.9999719094436155
4.756278139069535,1.000006551984603
4.769984992496248,1.0057644487279505
4.783691845922961,1.0063809525319658
4.7973986993496744,1.0078955231461129
4.811105552776388,1.0106750796522004
4.824812406203101,1.0103672369570267
4.838519259629814,1.0105429722085422
4.852226113056528,1.0114935047193507
4.865932966483241,1.010515965038017
4.879639819909954,1.006685529645518
4.8933466733366675,1.0062748959216687
4.907053526763381,1.0027628564300213
4.920760380190095,0.9989017781193411
4.934467233616808,0.9969293159801452
4.948174087043522,0.994854026770101
4.961880940470235,0.9920580239647893
4.975587793896948,0.9898028222501214
4.9892946473236615,0.9885390528943742
5.003001500750375,0.9883388743522445
5.016708354177088,0.98923255719264
5.030415207603801,0.9880765137561431
5.044122061030515,0.9891110625379594
5.057828914457228,0.9920752328299706
5.071535767883941,0.9947084812161565
5.0852426213106545,0.9977232246403586
5.098949474737368,1.0003395182284962
5.112656328164081,1.0057843788069947
5.126363181590795,1.0087181234275264
5.140070035017509,1.009625073925932
5.153776888444222,1.0127187639350623
5.167483741870935,1.0120798936962545
5.1811905952976485,1.0143598627123533
5.194897448724362,1.014365651855026
5.208604302151075,1.0138260439190416
5.222311155577788,1.014489104928342
5.236018009004502,1.010974614996674
5.249724862431215,1.0088249443450077
5.263431715857928,1.002936504009318
5.2771385692846415,1.000978124365754
5.290845422711355,0.9967841762654936
5.304552276138068,0.9929210377151505
5.318259129564782,0.9893167226145057
5.331965982991496,0.9854150403103885
5.345672836418209,0.9857123575409656
5.359379689844922,0.9849956699778999
5.3730865432716355,0.9853177513714567
5.386793396698349,0.9840278039228479
5.400500250125062,0.986953315991114
5.414207103551775,0.9882672205016846
5.427913956978489,0.9927745834465284
5.441620810405202,0.9971994235827245
5.455327663831915,0.9995403141991124
5.4690345172586285,1.0029345373274656
5.482741370685342,1.0081262114924416
5.496448224112055,1.011018087468406
5.510155077538768,1.014179302651989
5.523861930965483,1.014806682395084
5.537568784392196,1.0182571584904372
5.551275637818909,1.0169734893027575
5.5649824912456225,1.018610996277335
5.578689344672336,1.0153643131083008
5.592396198099049,1.0101914203881692
5.606103051525762,1.0103783795084251
5.619809904952476,1.0074786667045748
5.633516758379189,1.0006720626630645
5.647223611805902,0.9964569483003469
5.660930465232616,0.9915653275575712
5.674637318659329,0.9897916759520569
5.688344172086042,0.986100251032915
5.7020510255127554,0.9835531981136357
5.71575787893947,0.9810529292114334
5.729464732366183,0.9800252531156665
5.743171585792896,0.9800589079249475
5.7568784392196095,0.9810324964341659
5.770585292646323,0.9856647031692054
5.784292146073036,0.9891063158049154
5.797998999499749,0.9952691779634126
5.811705852926463,1.0008941171742776
5.825412706353176,1.0023667701761385
5.839119559779889,1.0057109749274449
5.852826413206603,1.0117871703360126
5.866533266633316,1.014696920246767
5.880240120060029,1.01847504397682
5.8939469734867425,1.018596556649431
5.907653826913456,1.0198953285633001
5.92136068034017,1.0213165086825873
5.935067533766883,1.0176786233456956
5.9487743871935965,1.0145164040546588
5.96248124062031,1.0134419307147997
5.976188094047023,1.009456572698024
5.989894947473736,1.0015013456717727
6.00360180090045,0.9988479442543041
6.017308654327163,0.9924348147463128
6.031015507753876,0.988201278552579
6.04472236118059,0.9861407306767724
6.058429214607303,0.9812792431469961
6.072136068034016,0.979338873946395
6.0858429214607295,0.9788863931463809
6.099549774887443,0.9789410586154684
6.113256628314156,0.9801260775060204
6.12696348174087,0.9835460484347025
6.1406703351675835,0.9878775390467751
6.154377188594297,0.992589987467282
6.16808404202101,0.9955437059317693
6.181790895447723,1.001876450609776
6.195497748874437,1.0081122173842636
6.20920460230115,1.009540010834662
6.222911455727863,1.0152401366664536
6.236618309154577,1.019632556110096
6.25032516258129,1.022845379376919
6.264032016008003,1.0215817630571316
6.2777388694347165,1.0219050220660182
6.29144572286143,1.018891241730428
6.305152576288143,1.0184761004101657
6.318859429714857,1.0138574142999799
6.3325662831415706,1.0087642757790634
6.346273136568284,1.0038144700305542
6.359979989994997,0.999416575770962
6.37368684342171,0.9925467844511708
6.387393696848424,0.98982251169405
6.401100550275137,0.9858607078126256
6.41480740370185,0.9807030380808371
6.428514257128564,0.9791070848851291
6.442221110555277,0.9787163264040618
6.45592796398199,0.9770199150064076
6.4696348174087035,0.9778440358558419
6.483341670835417,0.9809233132492439
6.49704852426213,0.9862245028149811
6.510755377688843,0.9903850630736554
6.524462231115558,0.9954452180687646
6.538169084542271,1.0008112620090426
6.551875937968984,1.0063116316144398
6.5655827913956974,1.0105534083029775
6.579289644822411,1.015421058828417
6.592996498249124,1.0178930097801524
6.606703351675837,1.0202751742061151
6.620410205102551,1.0220951447390239
6.634117058529264,1.0221524884874307
6.647823911955977,1.0222201194021698
6.6615307653826905,1.0196639462698245
6.675237618809404,1.0177455854306299
6.688944472236117,1.0094931282062465
6.70265132566283,1.0060060157060826
6.716358179089544,1.0005840489462163
6.730065032516258,0.9968408216592174
6.743771885942971,0.9897173973995479
6.7574787393696845,0.9872398794495594
6.771185592796398,0.9825493218198653
6.784892446223111,0.9783958482754541
6.798599299649824,0.9760253810646351
6.812306153076538,0.9767613511976863
6.826013006503251,0.9774850463196891
6.839719859929964,0.9799677431844591
6.8534267133566775,0.9840719185473341
6.867133566783391,0.9879622118253413
6.880840420210104,0.9939294437873991
6.894547273636817,0.9985113697893252
6.908254127063531,1.0036964753390545
6.921960980490245,1.008691723767895
6.935667833916958,1.0137187373019245
6.9493746873436715,1.0199940804101197
6.963081540770385,1.0195822838282704
6.976788394197098,1.0207071870756397
6.990495247623811,1.023292061534936
7.004202101050525,1.0211941562575282
7.017908954477238,1.018873856882834
7.031615807903951,1.0155148792436404
7.0453226613306645,1.0134488190959112
7.059029514757378,1.0083719129511477
7.072736368184091,1.0029281482255132
7.086443221610804,0.9958368511889389
7.100150075037518,0.9927910840927642
7.113856928464231,0.989182084808386
7.127563781890945,0.9843107432715222
7.1412706353176585,0.9811281604025519
7.154977488744372,0.9796019505477328
7.168684342171085,0.9760652490306462
7.182391195597798,0.9788546107076791
7.196098049024512,0.9802319751949099
7.209804902451225,0.9831117311672325
7.223511755877938,0.9876281539228674
7.2372186093046516,0.9922058405976552
7.250925462731365,0.9980754779178147
7.264632316158078,1.0021830482929726
7.278339169584791,1.005936778670853
7.292046023011505,1.010968410227106
7.305752876438218,1.015486620271656
7.319459729864932,1.01782575639513
7.3331665832916455,1.0207407859821727
7.346873436718359,1.0196773392967289
