time,flux
0.0,0.9946667949930833
0.013706853426713355,0.9981276814042981
0.02741370685342671,1.001297981515046
0.041120560280140064,1.0048344196001124
0.05482741370685342,1.00779913403981
0.06853426713356678,1.0095125330337953
0.08224112056028013,1.0111089757452743
0.09594797398699349,1.013531365718622
0.10965482741370684,1.0139384590543996
0.1233616808404202,1.0135606822719456
0.13706853426713356,1.0131492077380524
0.1507753876938469,1.0110932272067894
0.16448224112056026,1.009351229359395
0.1781890945472736,1.0063553474893758
0.19189594797398699,1.0045211046363078
0.20560280140070034,1.0022991770043086
0.21930965482741369,0.997860402985732
0.23301650825412704,0.9951735678148568
0.2467233616808404,0.9932529642593333
0.26043021510755376,0.9902621039990298
0.2741370685342671,0.9890759935329673
0.28784392196098046,0.9868431252977651
0.3015507753876938,0.9859784999899941
0.31525762881440716,0.9864626638060667
0.3289644822411205,0.987950668947543
0.34267133566783387,0.9893367150048148
0.3563781890945472,0.9904426739211817
0.3700850425212606,0.9922359668007141
0.38379189594797397,0.9950510825655692
0.3974987493746873,0.9984554516973191
0.41120560280140067,1.0010011235393417
0.424912456228114,1.003651162052431
0.43861930965482737,1.0064474329517874
0.4523261630815407,1.0092364996862524
0.46603301650825407,1.0101779206617711
0.4797398699349674,1.012560914508979
0.4934467233616808,1.0133386217834452
0.5071535767883941,1.0135708601211526
0.5208604302151075,1.0137953273914417
0.5345672836418208,1.0117905756062757
0.5482741370685342,1.0106213085643383
0.5619809904952475,1.006585113406762
0.5756878439219609,1.0060231425019552
0.5893946973486743,1.0022429356591989
0.6031015507753876,0.9992310646701357
0.616808404202101,0.9963358617349498
0.6305152576288143,0.9936787374368018
0.6442221110555277,0.9906209749486601
0.657928964482241,0.9891911074653716
0.6716358179089544,0.9879477294618257
0.6853426713356677,0.9861073981441245
0.6990495247623811,0.987279563212257
0.7127563781890944,0.987153953591405
0.7264632316158078,0.9875549988543607
0.7401700850425212,0.9905212219305953
0.7538769384692345,0.992049843126273
0.7675837918959479,0.9955204806313773
0.7812906453226612,0.9973413546294276
0.7949974987493746,1.0003842871154993
0.8087043521760879,1.004833225694449
0.8224112056028013,1.00656319967858
0.8361180590295146,1.0092303856600635
0.849824912456228,1.0102875017426418
0.8635317658829413,1.0121463220977065
0.8772386193096547,1.0151246584872695
0.8909454727363681,1.0128846322057217
0.9046523261630814,1.0126720825072115
0.9183591795897948,1.0119195624240065
0.9320660330165081,1.0092539764251136
0.9457728864432215,1.0082661611401358
0.9594797398699348,1.0057082291340713
0.9731865932966483,1.0022017920661164
0.9868934467233615,0.9994554909724942
1.000600300150075,0.9960680918080808
1.0143071535767882,0.9939897152525453
1.0280140070035018,0.9906910343886329
1.041720860430215,0.9881535321509535
1.0554277138569284,0.9881994405598095
1.0691345672836416,0.9864136667178622
1.0828414207103552,0.9856531646076196
1.0965482741370685,0.9867592665541641
1.1102551275637818,0.9890354530397412
1.123961980990495,0.9897477623805256
1.1376688344172086,0.9917744730530966
1.1513756878439219,0.9946745064459332
1.1650825412706352,0.9972119364290593
1.1787893946973487,1.0008280722722656
1.192496248124062,1.004301659185616
1.2062031015507753,1.005843293264511
1.2199099549774886,1.0088010750828988
1.233616808404202,1.010035709948748
1.2473236618309154,1.012044218133663
1.2610305152576287,1.0127401842282842
1.274737368684342,1.0133996394706641
1.2884442221110555,1.012433600711696
1.3021510755377688,1.0114189297818417
1.315857928964482,1.0106087765304188
1.3295647823911956,1.0077665128972892
1.3432716358179089,1.0050409668738747
1.3569784892446222,1.003596380091648
1.3706853426713355,0.9994507945043457
1.384392196098049,0.9958457870203283
1.3980990495247623,0.9943282400089574
1.4118059029514756,0.9908501170366223
1.4255127563781889,0.9891229199144577
1.4392196098049024,0.9881735799267538
1.4529264632316157,0.9866880070666285
1.466633316658329,0.9865171691102833
1.4803401700850425,0.9864861679123411
1.4940470235117558,0.9884790674025495
1.507753876938469,0.9900774538890285
1.5214607303651824,0.9911515267008432
1.5351675837918959,0.9935272387066428
1.5488744372186092,0.996817906665243
1.5625812906453225,1.0002795226785153
1.5762881440720358,1.0026083986960637
1.5899949974987493,1.005506668483171
1.6037018509254626,1.008076336090861
1.6174087043521759,1.0116588792783938
1.6311155577788894,1.0132541039797418
1.6448224112056027,1.0135752551069426
1.658529264632316,1.0141172061783685
1.6722361180590293,1.0143432244263375
1.6859429714857428,1.0119251274996932
1.699649824912456,1.0096804252312592
1.7133566783391694,1.0085613746323157
1.7270635317658827,1.0055607208899466
1.7407703851925962,1.0023037350051045
1.7544772386193095,0.9994498032545821
1.7681840920460228,0.997311758751337
1.7818909454727363,0.9943687445307801
1.7955977988994496,0.9922154034918395
1.8093046523261629,0.9891090465154507
1.8230115057528762,0.988114454148856
1.8367183591795897,0.9854743498120487
1.850425212606303,0.9860304871946255
1.8641320660330163,0.9860783606817556
1.8778389194597296,0.9883778077356545
1.891545772886443,0.988753010440485
1.9052526263131564,0.9923690335642011
1.9189594797398697,0.993849923400522
1.9326663331665832,0.9971580655347198
1.9463731865932965,0.9996068733982039
1.9600800400200098,1.0016958049582394
1.973786893446723,1.0020432567908106
1.9874937468734366,1.008433552823535
2.00120060030015,1.010968145383862
2.014907453726863,1.0131277877201061
2.0286143071535765,1.0128753393089753
2.04232116058029,1.013501078863136
2.0560280140070035,1.013038315985732
2.069734867433717,1.0130622905714826
2.08344172086043,1.0104700288850268
2.0971485742871434,1.0084551659651937
2.1108554277138567,1.0062714183651504
2.12456228114057,1.004022531328763
2.1382691345672833,0.9999209666692596
2.1519759879939966,0.9975319909133006
2.1656828414207103,0.99352600681691
2.1793896948474236,0.9916411858888264
2.193096548274137,0.99017014993895
2.20680340170085,0.9876005882108815
2.2205102551275635,0.9874106834702735
2.234217108554277,0.986806125099846
2.24792396198099,0.9868845253333871
2.261630815407704,0.9882462430735053
2.275337668834417,0.98978701734336
2.2890445222611304,0.9914543302244461
2.3027513756878437,0.9929034964315131
2.316458229114557,0.9962658069825318
2.3301650825412703,0.9987510524059564
2.3438719359679836,1.0023076271109765
2.3575787893946973,1.0049666416430465
2.3712856428214106,1.0072167937932999
2.384992496248124,1.0093879584177006
2.3986993496748372,1.0123856831147735
2.4124062031015505,1.0132655167345712
2.426113056528264,1.013126985016118
2.439819909954977,1.0139645242886117
2.4535267633816904,1.012869487759613
2.467233616808404,1.010905959707794
2.4809404702351174,1.0087980303574016
2.4946473236618307,1.0073502041262679
2.508354177088544,1.003647966646931
2.5220610305152573,1.000684466888708
2.5357678839419706,0.9971138096502336
2.549474737368684,0.995240115846085
2.5631815907953976,0.99158138015848
2.576888444222111,0.9905050072265057
2.5905952976488242,0.98816097886597
2.6043021510755375,0.9870280785411323
2.618009004502251,0.9865005771465034
2.631715857928964,0.9867404789641635
2.6454227113556774,0.9870075968702845
2.659129564782391,0.9885155530906755
2.6728364182091044,0.9915653937415502
2.6865432716358177,0.9934797112680968
2.700250125062531,0.9946493675634214
2.7139569784892443,0.9998124866847952
2.7276638319159576,1.0020201577958572
2.741370685342671,1.0040798265063373
2.755077538769384,1.0068769227244998
2.768784392196098,1.009744901749772
2.7824912456228112,1.011729635060721
2.7961980990495245,1.013166493245566
2.809904952476238,1.0131329804649951
2.823611805902951,1.0132328982066432
2.8373186593296644,1.012686395596611
2.8510255127563777,1.0123080822627422
2.8647323661830915,1.0095606928427976
2.8784392196098048,1.0072342218180252
2.892146073036518,1.0042655964667726
2.9058529264632313,1.0014332456536361
2.9195597798899446,0.9996290979933493
2.933266633316658,0.9951239583351129
2.9469734867433712,0.9933361871228817
2.960680340170085,0.9902611839205755
2.9743871935967983,0.9881395338261177
2.9880940470235116,0.9873059101172482
3.001800900450225,0.9855307668580872
3.015507753876938,0.9869671094145739
3.0292146073036514,0.9871515889850406
3.0429214607303647,0.9878519485563567
3.056628314157078,0.9908847018283942
3.0703351675837918,0.9924034121824955
3.084042021010505,0.9954639938419018
3.0977488744372184,0.9985287024489292
3.1114557278639317,1.0018728535386663
3.125162581290645,1.0047882258681782
3.1388694347173582,1.0069519674713074
3.1525762881440715,1.0085820488079735
3.1662831415707853,1.0108098086818142
3.1799899949974986,1.0119007350879958
3.193696848424212,1.012580984892496
3.207403701850925,1.014415194614557
3.2211105552776385,1.0126901639400074
3.2348174087043517,1.0113099842102649
3.248524262131065,1.0098762496588534
3.262231115557779,1.008555521861124
3.275937968984492,1.0057987740208267
3.2896448224112054,1.001256295076282
3.3033516758379187,0.9998212153491
3.317058529264632,0.9950999071997625
3.3307653826913453,0.9941590638628068
3.3444722361180586,0.9913611493280715
3.358179089544772,0.9880513587516463
3.3718859429714856,0.9868925148944749
3.385592796398199,0.9862337287018766
3.399299649824912,0.9867024228455533
3.4130065032516255,0.9881549769570137
3.4267133566783388,0.987695707820106
3.440420210105052,0.990537721854332
3.4541270635317654,0.9909960203754706
3.467833916958479,0.9941021377336736
3.4815407703851924,0.9977650804146566
3.4952476238119057,1.0009523040221437
3.508954477238619,1.0042808136812262
3.5226613306653323,1.0077031671522707
3.5363681840920456,1.0089481558470141
3.550075037518759,1.0111150513068798
3.5637818909454726,1.0130779202263533
3.577488744372186,1.0137772530283724
3.591195597798899,1.0128094279265132
3.6049024512256125,1.0134046076449443
3.6186093046523258,1.0123177829478274
3.632316158079039,1.0111745747141676
3.6460230115057524,1.0076772965385892
3.659729864932466,1.0044730936040032
3.6734367183591794,1.0030243801506906
3.6871435717858927,1.0002822620773941
3.700850425212606,0.996738730116251
3.7145572786393193,0.993731106347716
3.7282641320660326,0.9904552706968841
3.741970985492746,0.9892181056798576
3.755677838919459,0.9866523342096348
3.769384692346173,0.9873606505275777
3.783091545772886,0.9869346547631462
3.7967983991995995,0.9866392346569878
3.810505252626313,0.9885790450566683
3.824212106053026,0.9892576383379312
3.8379189594797394,0.9922233662524628
3.8516258129064527,0.9943841374877893
3.8653326663331664,0.9974915159151346
3.8790395197598797,1.0003183531006232
3.892746373186593,1.0032566947321984
3.9064532266133063,1.0072184337241252
3.9201600800400196,1.0090881637273512
3.933866933466733,1.0112752690788838
3.947573786893446,1.01311901077882
3.96128064032016,1.0136406422318964
3.974987493746873,1.0122029636503036
3.9886943471735865,1.01251888250877
4.0024012006003,1.0113418152819837
4.016108054027013,1.011274752869596
4.029814907453726,1.0087084362365926
4.04352176088044,1.0060651771102493
4.057228614307153,1.0024823140627113
4.070935467733866,0.9992907903344007
4.08464232116058,0.9972937519714702
4.098349174587293,0.9936392850936696
4.112056028014007,0.9915744151282251
4.12576288144072,0.988546660041993
4.139469734867434,0.9883290279218179
4.153176588294147,0.9869944727014769
4.16688344172086,0.9857517884032161
4.1805902951475735,0.9869420351180249
4.194297148574287,0.987537012447231
4.208004002001,0.9896418662141399
4.221710855427713,0.9915737820653726
4.235417708854427,0.9946694136497698
4.24912456228114,0.9971971606019472
4.262831415707853,1.0003671246143966
4.276538269134567,1.0026556047968256
4.29024512256128,1.0050299939287064
4.303951975987993,1.0085406587623906
4.317658829414707,1.011820889003766
4.331365682841421,1.01283449638229
4.345072536268134,1.013526055147171
4.358779389694847,1.0131831882800042
4.3724862431215605,1.0145280115771222
4.386193096548274,1.012222018971985
4.399899949974987,1.0107062250747127
4.4136068034017,1.0080213032388572
4.427313656828414,1.0059200514688624
4.441020510255127,1.0023036519652062
4.45472736368184,1.0014913356267157
4.468434217108554,0.9968458032449949
4.482141070535267,0.9948950138876627
4.49584792396198,0.9915943947010495
4.5095547773886935,0.9892150112123642
4.523261630815408,0.987912397782848
4.536968484242121,0.9865269174907535
4.550675337668834,0.9858503221491113
4.5643821910955475,0.986305762657632
4.578089044522261,0.9874698439882754
4.591795897948974,0.9894894808789245
4.605502751375687,0.9915041652483795
4.619209604802401,0.9939661107026536
4.632916458229114,0.9955709329334858
4.646623311655827,0.9998489649878722
4.660330165082541,1.0025726087965432
4.674037018509254,1.0047996539740895
4.687743871935967,1.0078128924191505
4.7014507253626805,1.0101082125408234
4.715157578789395,1.0128040296450107
4.728864432216108,1.0130902990689348
4.742571285642821,1.014126854821257
4.756278139069535,1.0139446406160006
4.769984992496248,1.0119714570530307
4.783691845922961,1.0109742977777982
4.7973986993496744,1.009190672452148
4.811105552776388,1.0070669340450835
4.824812406203101,1.003242205041632
4.838519259629814,1.0007717127676357
4.852226113056528,0.9969472428600673
4.865932966483241,0.9950080639886643
4.879639819909954,0.9910575313095366
4.8933466733366675,0.9903406969692313
4.907053526763381,0.9872900073797098
4.920760380190095,0.9872382208497114
4.934467233616808,0.9868467725140613
4.948174087043522,0.9863276813135008
4.961880940470235,0.9879690626756872
4.975587793896948,0.9894498235930633
4.9892946473236615,0.9915831060906201
5.003001500750375,0.9937037393593067
5.016708354177088,0.996730642962012
5.030415207603801,1.0001416252538085
5.044122061030515,1.0023205434302824
5.057828914457228,1.004324794699337
5.071535767883941,1.0070974521235632
5.0852426213106545,1.0098006774694215
5.098949474737368,1.012569478365027
5.112656328164081,1.0137177846766905
5.126363181590795,1.0137978912343912
5.140070035017509,1.0123999821691456
5.153776888444222,1.0132784613771482
5.167483741870935,1.0114907432638258
5.1811905952976485,1.0097033430904183
5.194897448724362,1.0072098947131158
5.208604302151075,1.0020505438746585
5.222311155577788,1.0022080645609144
5.236018009004502,0.9979929128543333
5.249724862431215,0.9945868943867308
5.263431715857928,0.9919275072868372
5.2771385692846415,0.9900288661088628
5.290845422711355,0.9895932050051814
5.304552276138068,0.9871394548306249
5.318259129564782,0.9863528236528126
5.331965982991496,0.9857624255295383
5.345672836418209,0.9867814172905615
5.359379689844922,0.988495693544401
5.3730865432716355,0.9911998944867001
5.386793396698349,0.9932606734536642
5.400500250125062,0.9961901632804004
5.414207103551775,0.9982292559295038
5.427913956978489,1.0023240897829164
5.441620810405202,1.0040932930969846
5.455327663831915,1.0070691882239553
5.4690345172586285,1.009177127544884
5.482741370685342,1.0107279781754421
5.496448224112055,1.0124367346528464
5.510155077538768,1.012511428720162
5.523861930965483,1.0133351637883226
5.537568784392196,1.0145750129532212
5.551275637818909,1.0110048768454327
5.5649824912456225,1.009403342746561
5.578689344672336,1.0072355656951837
5.592396198099049,1.0046586581490586
5.606103051525762,1.000749887181786
5.619809904952476,0.9984822741325586
5.633516758379189,0.995170976190205
5.647223611805902,0.9922534876874028
5.660930465232616,0.9893655404404061
5.674637318659329,0.989031133980181
5.688344172086042,0.9870215414187647
5.7020510255127554,0.9854899333575713
5.71575787893947,0.98720475604828
5.729464732366183,0.9879230946708427
5.743171585792896,0.9884916991911402
5.7568784392196095,0.9889853683312562
5.770585292646323,0.9930907507609903
5.784292146073036,0.995193954299613
5.797998999499749,0.9986308300945084
5.811705852926463,1.000819798508326
5.825412706353176,1.004350185465298
5.839119559779889,1.0066542161727985
5.852826413206603,1.009468326384837
5.866533266633316,1.0114291676339167
5.880240120060029,1.0125348273834947
5.8939469734867425,1.0127364066699538
5.907653826913456,1.0133544926535432
5.92136068034017,1.0127630485244854
5.935067533766883,1.0115351867504283
5.9487743871935965,1.0103073486771794
5.96248124062031,1.008316861588577
5.976188094047023,1.0044964150938418
5.989894947473736,1.0017406839032026
6.00360180090045,0.9990558438526832
6.017308654327163,0.9956713965560869
6.031015507753876,0.9931695337645724
6.04472236118059,0.9903802377455208
6.058429214607303,0.988252535451871
6.072136068034016,0.9869836194019084
6.0858429214607295,0.9880597347658117
6.099549774887443,0.9862785728214086
6.113256628314156,0.9866541415023259
6.12696348174087,0.9887180172192778
6.1406703351675835,0.9910389038667407
6.154377188594297,0.9921817476799354
6.16808404202101,0.9947852967839372
6.181790895447723,0.9980495181630316
6.195497748874437,1.0017262768366764
6.20920460230115,1.004201636392933
6.222911455727863,1.0076081578263094
6.236618309154577,1.0090449101118693
6.25032516258129,1.011684188573498
6.264032016008003,1.012611627543547
6.2777388694347165,1.0133128718714375
6.29144572286143,1.0133487958830245
6.305152576288143,1.0129354037416094
6.318859429714857,1.0120997946256804
6.3325662831415706,1.0090593191262571
6.346273136568284,1.0083252755677639
6.359979989994997,1.0047011178774605
6.37368684342171,1.001717513319459
6.387393696848424,0.999103973018223
6.401100550275137,0.9957916443619343
6.41480740370185,0.9934125082246235
6.428514257128564,0.9907107157111967
6.442221110555277,0.98913920308381
6.45592796398199,0.9869362565092767
6.4696348174087035,0.9863151376278878
6.483341670835417,0.9857379775643192
6.49704852426213,0.9854198523866802
6.510755377688843,0.9879325936128774
6.524462231115558,0.9896705298037122
6.538169084542271,0.9918414761486526
6.551875937968984,0.9945086295761596
6.5655827913956974,0.9978785762818025
6.579289644822411,1.0011280904847006
6.592996498249124,1.0024352743680784
6.606703351675837,1.005437794517791
6.620410205102551,1.0100699961070498
6.634117058529264,1.0102688920879945
6.647823911955977,1.0120896124717407
6.6615307653826905,1.0142016883833938
6.675237618809404,1.0139774313652417
6.688944472236117,1.0130943282475147
6.70265132566283,1.0121152264916138
6.716358179089544,1.0103479769646257
6.730065032516258,1.0081579276650345
6.743771885942971,1.006087088996206
6.7574787393696845,1.0033624630649927
6.771185592796398,0.9999149389284643
6.784892446223111,0.9961398664065432
6.798599299649824,0.9946148595123356
6.812306153076538,0.9908903103914303
6.826013006503251,0.9894058952296757
6.839719859929964,0.9879417460609143
6.8534267133566775,0.9868664535083519
6.867133566783391,0.9860406425028932
6.880840420210104,0.9860507587806366
6.894547273636817,0.9879668108547264
6.908254127063531,0.988799814801349
6.921960980490245,0.9921251786365151
6.935667833916958,0.9940711118369082
6.9493746873436715,0.9978910906999839
6.963081540770385,1.0000140374500173
6.976788394197098,1.0024076493772924
6.990495247623811,1.0055312588206176
7.004202101050525,1.008470693662113
7.017908954477238,1.0106787400937924
7.031615807903951,1.0123240931601263
7.0453226613306645,1.012990742080358
7.059029514757378,1.0134831817627163
7.072736368184091,1.014007777069746
7.086443221610804,1.0119903607631582
7.100150075037518,1.010531559999446
7.113856928464231,1.0092829619862431
7.127563781890945,1.0067278998381424
7.1412706353176585,1.0027398167367145
7.154977488744372,0.9997773290193898
7.168684342171085,0.996433860337976
7.182391195597798,0.9940127716402964
7.196098049024512,0.9916754560063119
7.209804902451225,0.9905282349610577
7.223511755877938,0.987219137844859
7.2372186093046516,0.9862154382201899
7.250925462731365,0.9854156719411089
7.264632316158078,0.9864810272077474
7.278339169584791,0.9878174784119265
7.292046023011505,0.9900190586771176
7.305752876438218,0.9916115507894651
7.319459729864932,0.9936136657648539
7.3331665832916455,0.9975821789977432
7.346873436718359,0.9996292711790029
