time,flux
0.0,0.9901722197790048
0.013706853426713355,0.9937127385645882
0.02741370685342671,0.9951802905925472
0.041120560280140064,1.000723713942448
0.05482741370685342,1.0061478983723764
0.06853426713356678,1.0102474383954343
0.08224112056028013,1.0136099117936306
0.09594797398699349,1.0159734286511122
0.10965482741370684,1.0176181188349658
0.1233616808404202,1.0193776365477323
0.13706853426713356,1.0203062828970342
0.1507753876938469,1.0179044920243916
0.16448224112056026,1.0164291817399094
0.1781890945472736,1.014006628364264
0.19189594797398699,1.0119077726340675
0.20560280140070034,1.0085488105777054
0.21930965482741369,1.0052112153720207
0.23301650825412704,0.9999085900364953
0.2467233616808404,0.9960533565682137
0.26043021510755376,0.9920561074758228
0.2741370685342671,0.9886155935157592
0.28784392196098046,0.9861947979257519
0.3015507753876938,0.981493021453579
0.31525762881440716,0.9806788246754594
0.3289644822411205,0.9801409048321013
0.34267133566783387,0.9807297161732723
0.3563781890945472,0.9811666328732775
0.3700850425212606,0.982535529129502
0.38379189594797397,0.9849704205127497
0.3974987493746873,0.9874777296763461
0.41120560280140067,0.994011666777214
0.424912456228114,0.9967525167090729
0.43861930965482737,1.0023748164383368
0.4523261630815407,1.0054545008940272
0.46603301650825407,1.0099478581814914
0.4797398699349674,1.012521928095699
0.4934467233616808,1.0163350499727195
0.5071535767883941,1.0175944828431887
0.5208604302151075,1.019368612841416
0.5345672836418208,1.0214664804584854
0.5482741370685342,1.021520818546323
0.5619809904952475,1.0183274471140475
0.5756878439219609,1.015208606985143
0.5893946973486743,1.013331523111512
0.6031015507753876,1.0086085501499138
0.616808404202101,1.0049291240988814
0.6305152576288143,1.002222661101102
0.6442221110555277,0.9951983297154052
0.657928964482241,0.9919388732517173
0.6716358179089544,0.9891651669160282
0.6853426713356677,0.9840955373275555
0.6990495247623811,0.9808847261844141
0.7127563781890944,0.9805487334796863
0.7264632316158078,0.9796549768837415
0.7401700850425212,0.9799675093918562
0.7538769384692345,0.9803863148290906
0.7675837918959479,0.981354633076573
0.7812906453226612,0.9854712857083631
0.7949974987493746,0.9890611378699505
0.8087043521760879,0.9912461988084196
0.8224112056028013,0.9960662808755928
0.8361180590295146,1.0008839542902566
0.849824912456228,1.0056782052188893
0.8635317658829413,1.009284777183659
0.8772386193096547,1.0141979723726084
0.8909454727363681,1.0171812466019743
0.9046523261630814,1.0184449586019855
0.9183591795897948,1.022487304639546
0.9320660330165081,1.019858306346109
0.9457728864432215,1.0194421774625855
0.9594797398699348,1.0184520380214992
0.9731865932966483,1.0159234224369051
0.9868934467233615,1.0137203617694712
1.000600300150075,1.009973146965465
1.0143071535767882,1.0051821570163166
1.0280140070035018,1.0017662881851768
1.041720860430215,0.9970343205335692
1.0554277138569284,0.9911490865414161
1.0691345672836416,0.986532791177957
1.0828414207103552,0.9847446657656077
1.0965482741370685,0.9819942195844231
1.1102551275637818,0.9802440602983553
1.123961980990495,0.9767694408662684
1.1376688344172086,0.9787034671185685
1.1513756878439219,0.980763160248618
1.1650825412706352,0.9845059429991624
1.1787893946973487,0.9854428528307106
1.192496248124062,0.9878201641404138
1.2062031015507753,0.9930025379279704
1.2199099549774886,0.9983033210679733
1.233616808404202,1.0015929140513125
1.2473236618309154,1.0067390353735821
1.2610305152576287,1.0096499332318543
1.274737368684342,1.0151818979228968
1.2884442221110555,1.016613434894889
1.3021510755377688,1.018477003331668
1.315857928964482,1.0211479560445196
1.3295647823911956,1.0193989716081775
1.3432716358179089,1.0203573201068448
1.3569784892446222,1.0186391994271773
1.3706853426713355,1.0156464896749806
1.384392196098049,1.0134518451933807
1.3980990495247623,1.0085593562564692
1.4118059029514756,1.006235259979379
1.4255127563781889,1.0024332584766047
1.4392196098049024,0.995213724364602
1.4529264632316157,0.9923768824595083
1.466633316658329,0.9894793567255618
1.4803401700850425,0.9862746466475438
1.4940470235117558,0.9836768595215117
1.507753876938469,0.9800223135828647
1.5214607303651824,0.9796831896870191
1.5351675837918959,0.9797943237388606
1.5488744372186092,0.9812349828942472
1.5625812906453225,0.9838582368609186
1.5762881440720358,0.9857489509250639
1.5899949974987493,0.984034944367889
1.6037018509254626,0.9920125073225431
1.6174087043521759,0.9976497455404986
1.6311155577788894,1.0008504500174937
1.6448224112056027,1.0056444753075584
1.658529264632316,1.009179212730634
1.6722361180590293,1.0118201197818293
1.6859429714857428,1.0161884393202723
1.699649824912456,1.0188081704861771
1.7133566783391694,1.0197128817644654
1.7270635317658827,1.0191380093806741
1.7407703851925962,1.0216228685734177
1.7544772386193095,1.0183696896833936
1.7681840920460228,1.0157809339744122
1.7818909454727363,1.0140681104548133
1.7955977988994496,1.0113471198885595
1.8093046523261629,1.005568403067914
1.8230115057528762,1.0012950093677184
1.8367183591795897,0.9981603722290361
1.850425212606303,0.9928557834991589
1.8641320660330163,0.988839584607694
1.8778389194597296,0.9861287054719967
1.891545772886443,0.9848913387742482
1.9052526263131564,0.9815496986592382
1.9189594797398697,0.9786887465154855
1.9326663331665832,0.9815024633697756
1.9463731865932965,0.9819394161404877
1.9600800400200098,0.9827821182347448
1.973786893446723,0.9853945715580491
1.9874937468734366,0.9886728466414534
2.00120060030015,0.9924528276111834
2.014907453726863,0.9975056898620233
2.0286143071535765,1.0008549778131477
2.04232116058029,1.004395357988736
2.0560280140070035,1.0086319574985012
2.069734867433717,1.0113164835291613
2.08344172086043,1.0166028901863815
2.0971485742871434,1.0144500161052277
2.1108554277138567,1.0186238937938066
2.12456228114057,1.0181161979761302
2.1382691345672833,1.0181232087016738
2.1519759879939966,1.017069460502934
2.1656828414207103,1.0144283752625893
2.1793896948474236,1.0122745506513209
2.193096548274137,1.0097240726455379
2.20680340170085,1.0060564681308959
2.2205102551275635,0.9997950894496691
2.234217108554277,0.997297608988142
2.24792396198099,0.9924730624502203
2.261630815407704,0.9889770770888507
2.275337668834417,0.9868729516902426
2.2890445222611304,0.9841811329210659
2.3027513756878437,0.9828167947004688
2.316458229114557,0.9815731568504614
2.3301650825412703,0.9830600362454235
2.3438719359679836,0.983012017260373
2.3575787893946973,0.985424833947431
2.3712856428214106,0.9863200226212329
2.384992496248124,0.9888479502435825
2.3986993496748372,0.9939833152081138
2.4124062031015505,0.9977961941306516
2.426113056528264,1.000146499217411
2.439819909954977,1.005392453900783
2.4535267633816904,1.0088378244273104
2.467233616808404,1.0130659168375775
2.4809404702351174,1.0144230679053314
2.4946473236618307,1.0166222073212776
2.508354177088544,1.0161325296756483
2.5220610305152573,1.0168059698197662
2.5357678839419706,1.0168752373942134
2.549474737368684,1.0161930513312945
2.5631815907953976,1.0131540857680146
2.576888444222111,1.0111892275475196
2.5905952976488242,1.0083699392024323
2.6043021510755375,1.0060482077835273
2.618009004502251,1.0021085031776236
2.631715857928964,0.9973204006150078
2.6454227113556774,0.9929733207650975
2.659129564782391,0.9913497699506959
2.6728364182091044,0.989154176566163
2.6865432716358177,0.987467722030551
2.700250125062531,0.9862560959491425
2.7139569784892443,0.9843529543895837
2.7276638319159576,0.9841793087305502
2.741370685342671,0.9850724999156045
2.755077538769384,0.9875588051332406
2.768784392196098,0.9877819134399443
2.7824912456228112,0.9900770324186202
2.7961980990495245,0.994171637601892
2.809904952476238,0.9975438427918334
2.823611805902951,0.9993569211370658
2.8373186593296644,1.0029815893449237
2.8510255127563777,1.0078063361956684
2.8647323661830915,1.010501736704897
2.8784392196098048,1.0132501175566606
2.892146073036518,1.0135602959164116
2.9058529264632313,1.0145098172519693
2.9195597798899446,1.0162186121258643
2.933266633316658,1.0147257577400213
2.9469734867433712,1.013128345531294
2.960680340170085,1.0122205892850684
2.9743871935967983,1.0087024630235564
2.9880940470235116,1.0068133776828954
3.001800900450225,1.0030911689921294
3.015507753876938,0.9989985911201634
3.0292146073036514,0.9975602720130012
3.0429214607303647,0.9933943996193663
3.056628314157078,0.9924553296816018
3.0703351675837918,0.9903193808615718
3.084042021010505,0.9888732691594413
3.0977488744372184,0.9850911991210581
3.1114557278639317,0.9856841727155726
3.125162581290645,0.9866651340520671
3.1388694347173582,0.9890368912049718
3.1525762881440715,0.9886344049304202
3.1662831415707853,0.9908514297145126
3.1799899949974986,0.9912183898496062
3.193696848424212,0.9947785477406456
3.207403701850925,0.9971338026822381
3.2211105552776385,1.0022808175140183
3.2348174087043517,1.0028218926585357
3.248524262131065,1.0052721033480416
3.262231115557779,1.0074106670933791
3.275937968984492,1.0117046723482073
3.2896448224112054,1.0118820081080235
3.3033516758379187,1.0113984233930162
3.317058529264632,1.013347474843445
3.3307653826913453,1.0119336877106813
3.3444722361180586,1.0123552034623977
3.358179089544772,1.0097800747460055
3.3718859429714856,1.0073076815221775
3.385592796398199,1.0047095738632479
3.399299649824912,1.0030426880508219
3.4130065032516255,1.0006515328954808
3.4267133566783388,0.9966759366823134
3.440420210105052,0.9942093556275631
3.4541270635317654,0.9928829925456295
3.467833916958479,0.9904542830770786
3.4815407703851924,0.9903431228928695
3.4952476238119057,0.9905031206465298
3.508954477238619,0.9876747998226599
3.5226613306653323,0.9880791692518648
3.5363681840920456,0.9886934624659232
3.550075037518759,0.9897266697578347
3.5637818909454726,0.9917055363142437
3.577488744372186,0.9950279609701752
3.591195597798899,0.996422364028111
3.6049024512256125,0.9990332461336703
3.6186093046523258,1.0008067791861952
3.632316158079039,1.0055044231531833
3.6460230115057524,1.0067369541600852
3.659729864932466,1.0071330927378692
3.6734367183591794,1.010209762378013
3.6871435717858927,1.0110306406511962
3.700850425212606,1.0118644712583742
3.7145572786393193,1.0117090942440885
3.7282641320660326,1.0089955542520093
3.741970985492746,1.0120323650696093
3.755677838919459,1.0076522205515528
3.769384692346173,1.0067391485657924
3.783091545772886,1.0053984564390832
3.7967983991995995,1.0018013633785479
3.810505252626313,0.9996330595297426
3.824212106053026,0.9977952426608776
3.8379189594797394,0.9962983036514608
3.8516258129064527,0.9937773181218325
3.8653326663331664,0.9903056510801138
3.8790395197598797,0.9931934311409616
3.892746373186593,0.989696626493748
3.9064532266133063,0.9911119915921144
3.9201600800400196,0.9905184253527846
3.933866933466733,0.9921364832699227
3.947573786893446,0.9915378246932354
3.96128064032016,0.9930718673088138
3.974987493746873,0.9952013250605423
3.9886943471735865,0.9992909785781561
4.0024012006003,0.9993192780965818
4.016108054027013,1.0021686127613418
4.029814907453726,1.0036808233379648
4.04352176088044,1.0047807531240907
4.057228614307153,1.0082433056979045
4.070935467733866,1.008935376752358
4.08464232116058,1.0086611365933273
4.098349174587293,1.0097543471586294
4.112056028014007,1.0070531981029596
4.12576288144072,1.0076310434061113
4.139469734867434,1.0067559166528535
4.153176588294147,1.005607048720082
4.16688344172086,1.0026398422734253
4.1805902951475735,1.002110915886492
4.194297148574287,1.000538482847404
4.208004002001,0.9980193682523225
4.221710855427713,0.9990578244442806
4.235417708854427,0.9962878470461708
4.24912456228114,0.9948343909835755
4.262831415707853,0.9944066054384337
4.276538269134567,0.992096796224751
4.29024512256128,0.9940887331793464
4.303951975987993,0.9934566297566161
4.317658829414707,0.9937147533576397
4.331365682841421,0.9946963169183439
4.345072536268134,0.9959028702220543
4.358779389694847,0.9972371883935885
4.3724862431215605,0.9981195061902015
4.386193096548274,0.9994790260838641
4.399899949974987,1.0005290710827355
4.4136068034017,1.0015318474317512
4.427313656828414,1.0034567498973324
4.441020510255127,1.0053733713561066
4.45472736368184,1.0066406730418698
4.468434217108554,1.0081782919741766
4.482141070535267,1.0044796709684742
4.49584792396198,1.0070798914523797
4.5095547773886935,1.0061118494344523
4.523261630815408,1.0026181586383307
4.536968484242121,1.0029930254938022
4.550675337668834,1.0028960860204525
4.5643821910955475,1.0014554143515357
4.578089044522261,1.0018830950878563
4.591795897948974,0.9987283649263654
4.605502751375687,0.9983940824024217
4.619209604802401,0.9976128523025949
4.632916458229114,0.9961343531518819
4.646623311655827,0.9956811826089585
4.660330165082541,0.9956702246140606
4.674037018509254,0.9958510006326063
4.687743871935967,0.9945960377690615
4.7014507253626805,0.9977822909204549
4.715157578789395,0.997356166223197
4.728864432216108,0.9981738118163175
4.742571285642821,0.9970458934431488
4.756278139069535,0.9991194358215282
4.769984992496248,1.0002771742010454
4.783691845922961,1.00192177097182
4.7973986993496744,1.0035872499303065
4.811105552776388,1.0035110489034105
4.824812406203101,1.0042012695920914
4.838519259629814,1.0026034246478113
4.852226113056528,1.0042890729908507
4.865932966483241,1.0054567803968149
4.879639819909954,1.0033532965486962
4.8933466733366675,1.0030443062543704
4.907053526763381,1.002557641714547
4.920760380190095,1.0016885612755135
4.934467233616808,0.9999089325174314
4.948174087043522,1.0007793412235488
4.961880940470235,0.9996401073006422
4.975587793896948,0.9969363295295635
4.9892946473236615,0.9975969729377593
5.003001500750375,0.9971317222146338
5.016708354177088,0.9953015746510883
5.030415207603801,0.9962093617310659
5.044122061030515,0.9960101514105479
5.057828914457228,0.9965252545907776
5.071535767883941,0.9978042152671399
5.0852426213106545,0.9981544880758124
5.098949474737368,0.9996922059685388
5.112656328164081,0.9993598280776799
5.126363181590795,1.0004991339756453
5.140070035017509,1.0024260760776713
5.153776888444222,1.0034081463723807
5.167483741870935,1.0023485285034994
5.1811905952976485,1.0025751911064527
5.194897448724362,1.0032715354731443
5.208604302151075,1.0038906701966712
5.222311155577788,1.004638421315775
5.236018009004502,1.0029179719040113
5.249724862431215,1.0037729538635398
5.263431715857928,1.0008939465244957
5.2771385692846415,1.0015569372486572
5.290845422711355,1.0004720534680716
5.304552276138068,0.9973877116656018
5.318259129564782,0.9986870506852863
5.331965982991496,0.9992348909974094
5.345672836418209,0.9969841004316193
5.359379689844922,0.995927772931329
5.3730865432716355,0.9951943839063535
5.386793396698349,0.9943173757410673
5.400500250125062,0.9961521160338337
5.414207103551775,0.9960005555044966
5.427913956978489,0.9963197971997764
5.441620810405202,0.9961754274046132
5.455327663831915,0.9990448015899658
5.4690345172586285,0.9989832458474021
5.482741370685342,0.999839171385167
5.496448224112055,1.0000944599854957
5.510155077538768,1.0015234004331177
5.523861930965483,1.0042913661883879
5.537568784392196,1.0052054147030751
5.551275637818909,1.005755950931682
5.5649824912456225,1.0065226573638248
5.578689344672336,1.0074733676221848
5.592396198099049,1.0039644965702255
5.606103051525762,1.006654493644913
5.619809904952476,1.0048349044713671
5.633516758379189,1.0024390369384277
5.647223611805902,1.0019477227646099
5.660930465232616,1.0008314765373345
5.674637318659329,0.9992746702819637
5.688344172086042,1.0004733326005664
5.7020510255127554,0.9969092474985782
5.71575787893947,0.9965366186308725
5.729464732366183,0.9953657929422367
5.743171585792896,0.994435025056883
5.7568784392196095,0.9939241898877411
5.770585292646323,0.9930031542234725
5.784292146073036,0.993974618968781
5.797998999499749,0.994933885996115
5.811705852926463,0.99419368413994
5.825412706353176,0.9967496994073739
5.839119559779889,0.9962042509919834
5.852826413206603,0.9985818906945145
5.866533266633316,1.00070318459743
5.880240120060029,1.0020850479489893
5.8939469734867425,1.003634668523774
5.907653826913456,1.0064078642822512
5.92136068034017,1.0073865284466215
5.935067533766883,1.006110500921721
5.9487743871935965,1.008787120447596
5.96248124062031,1.0064862092906328
5.976188094047023,1.0090511888799363
5.989894947473736,1.0074565685314876
6.00360180090045,1.006369506432159
6.017308654327163,1.0045685828635924
6.031015507753876,1.0024374814608146
6.04472236118059,1.0001808910356347
6.058429214607303,0.9991081862453618
6.072136068034016,0.995910527135417
6.0858429214607295,0.9947293824361266
6.099549774887443,0.9949986100025997
6.113256628314156,0.992090343300358
6.12696348174087,0.9906603499526822
6.1406703351675835,0.9929055930129259
6.154377188594297,0.9922673154989394
6.16808404202101,0.9917229219384562
6.181790895447723,0.9915216210586062
6.195497748874437,0.992635498419777
6.20920460230115,0.993451613108939
6.222911455727863,0.9947497401060961
6.236618309154577,0.9986139314678589
6.25032516258129,1.0002040012411122
6.264032016008003,1.002474380977128
6.2777388694347165,1.0049751528333277
6.29144572286143,1.007902295458131
6.305152576288143,1.0062570010988292
6.318859429714857,1.010735721147304
6.3325662831415706,1.0100631189081648
6.346273136568284,1.0093372804366847
6.359979989994997,1.0114834862333542
6.37368684342171,1.0082828252686937
6.387393696848424,1.0101433535014055
6.401100550275137,1.0063400068266612
6.41480740370185,1.0048284729737917
6.428514257128564,1.0033060106957357
6.442221110555277,1.0001403486431366
6.45592796398199,0.9992754969806068
6.4696348174087035,0.9965155993694831
6.483341670835417,0.9915680337915981
6.49704852426213,0.9908374415816467
6.510755377688843,0.9912415498887492
6.524462231115558,0.989678361486247
6.538169084542271,0.987670616997965
6.551875937968984,0.9877008435690792
6.5655827913956974,0.9904009442693678
6.579289644822411,0.9910160892991432
6.592996498249124,0.9910142773438757
6.606703351675837,0.9935658854192787
6.620410205102551,0.9953743888680457
6.634117058529264,0.9999655352616555
6.647823911955977,1.0026138432037217
6.6615307653826905,1.0035648055744337
6.675237618809404,1.005757274104543
6.688944472236117,1.0097456799049902
6.70265132566283,1.0100155178729455
6.716358179089544,1.0113805756462795
6.730065032516258,1.0132832111137724
6.743771885942971,1.013278650888967
6.7574787393696845,1.012429612854884
6.771185592796398,1.0107737073659693
6.784892446223111,1.0115249005326108
6.798599299649824,1.007970470332375
6.812306153076538,1.0049666424881791
6.826013006503251,1.0020137862114449
6.839719859929964,1.0003632873447568
6.8534267133566775,0.9963997810412537
6.867133566783391,0.9932285900062698
6.880840420210104,0.9923431851765476
6.894547273636817,0.98986011383534
6.908254127063531,0.9875404808373168
6.921960980490245,0.9867934703807419
6.935667833916958,0.9864935089289307
6.9493746873436715,0.9872281648800965
6.963081540770385,0.9870478174496479
6.976788394197098,0.9889946263849523
6.990495247623811,0.9918721377742025
7.004202101050525,0.993986603311236
7.017908954477238,0.996397030910402
7.031615807903951,0.9986346790529547
7.0453226613306645,1.0019763080795479
7.059029514757378,1.004718704225591
7.072736368184091,1.0082917662279285
7.086443221610804,1.0092846500820616
7.100150075037518,1.0112586705782143
7.113856928464231,1.0148897005793935
7.127563781890945,1.0132249892994016
7.1412706353176585,1.0154486650232748
7.154977488744372,1.013890687735948
7.168684342171085,1.013915250710368
7.182391195597798,1.0116470315022097
7.196098049024512,1.00926587206371
7.209804902451225,1.0065761254488135
7.223511755877938,1.004262960896148
7.2372186093046516,0.9985732122252419
7.250925462731365,0.9940824747594322
7.264632316158078,0.9927728328502591
7.278339169584791,0.9900633923210403
7.292046023011505,0.9877585283066443
7.305752876438218,0.9854939798278556
7.319459729864932,0.9832565233271549
7.3331665832916455,0.9866041611308523
7.346873436718359,0.9845031337643829
