time,flux
0.0,1.0299319107627611
0.013706853426713355,1.0260374926714448
0.02741370685342671,1.0224486192904536
0.041120560280140064,1.015491108148562
0.05482741370685342,1.0116126310329243
0.06853426713356678,1.0043565643796457
0.08224112056028013,0.9959031539829175
0.09594797398699349,0.988907655070423
0.10965482741370684,0.9826657352491809
0.1233616808404202,0.9776641934467825
0.13706853426713356,0.9713921197213069
0.1507753876938469,0.9658420640502223
0.16448224112056026,0.9637257254853245
0.1781890945472736,0.9625545781616226
0.19189594797398699,0.9594914948699867
0.20560280140070034,0.9634502973051002
0.21930965482741369,0.9654386535232744
0.23301650825412704,0.9670473899902259
0.2467233616808404,0.9724641722779481
0.26043021510755376,0.9779669977703892
0.2741370685342671,0.9816936071369634
0.28784392196098046,0.9874413996404251
0.3015507753876938,0.9942667970082332
0.31525762881440716,0.9992320443380349
0.3289644822411205,1.004864138246928
0.34267133566783387,1.0102443015682736
0.3563781890945472,1.0124134363250177
0.3700850425212606,1.0144009929380988
0.38379189594797397,1.015751371094453
0.3974987493746873,1.01630170199027
0.41120560280140067,1.0160266972539649
0.424912456228114,1.0162628359939174
0.43861930965482737,1.011467020687115
0.4523261630815407,1.0113142130151447
0.46603301650825407,1.007969734203131
0.4797398699349674,1.0056586340240983
0.4934467233616808,1.0004652507119953
0.5071535767883941,0.9989954803539273
0.5208604302151075,0.9970424927127021
0.5345672836418208,0.994019861555812
0.5482741370685342,0.9937362580036448
0.5619809904952475,0.9936485726988915
0.5756878439219609,0.9956029600906415
0.5893946973486743,0.9985523639613355
0.6031015507753876,1.0005102589457175
0.616808404202101,1.00297909167226
0.6305152576288143,1.0060080187117637
0.6442221110555277,1.0138764845125219
0.657928964482241,1.0144146500080127
0.6716358179089544,1.0206032238933531
0.6853426713356677,1.0220965243671924
0.6990495247623811,1.0226436107957493
0.7127563781890944,1.026265663874791
0.7264632316158078,1.028123170471967
0.7401700850425212,1.0269127571464958
0.7538769384692345,1.0253502327840114
0.7675837918959479,1.024756923937656
0.7812906453226612,1.020470272758974
0.7949974987493746,1.0164834494036812
0.8087043521760879,1.011692038768913
0.8224112056028013,1.006369376182649
0.8361180590295146,1.0010947289399548
0.849824912456228,0.9939548035018555
0.8635317658829413,0.9883591586883241
0.8772386193096547,0.9823515051974513
0.8909454727363681,0.9792624450277501
0.9046523261630814,0.9781918460819328
0.9183591795897948,0.9758619513365695
0.9320660330165081,0.9724493791529388
0.9457728864432215,0.9718920744011903
0.9594797398699348,0.9732560125458679
0.9731865932966483,0.9738195038986894
0.9868934467233615,0.9775173163086066
1.000600300150075,0.9803605314983267
1.0143071535767882,0.9850955848537996
1.0280140070035018,0.9918486877962767
1.041720860430215,0.9948565312347948
1.0554277138569284,0.9995527716962005
1.0691345672836416,1.0038895257111167
1.0828414207103552,1.007255202819515
1.0965482741370685,1.0091301143494864
1.1102551275637818,1.0127752700693884
1.123961980990495,1.0129024227056314
1.1376688344172086,1.0110905052505559
1.1513756878439219,1.0125415611962254
1.1650825412706352,1.006228294008137
1.1787893946973487,1.0053697260815913
1.192496248124062,1.000266551048117
1.2062031015507753,0.9968465851391326
1.2199099549774886,0.9915516359875486
1.233616808404202,0.9864431280769536
1.2473236618309154,0.9810128177958188
1.2610305152576287,0.9762123209092256
1.274737368684342,0.9727873203972275
1.2884442221110555,0.970260005679241
1.3021510755377688,0.9692061390177291
1.315857928964482,0.9709196503082069
1.3295647823911956,0.9705448037511233
1.3432716358179089,0.9773282942896817
1.3569784892446222,0.9821549256427154
1.3706853426713355,0.9879466615279273
1.384392196098049,0.9916991706729854
1.3980990495247623,1.0001404235709794
1.4118059029514756,1.00766987085726
1.4255127563781889,1.0169726263769105
1.4392196098049024,1.025850715901416
1.4529264632316157,1.0324175353084122
1.466633316658329,1.0371166116231738
1.4803401700850425,1.04354147644072
1.4940470235117558,1.0467617875079998
1.507753876938469,1.0497333699921814
1.5214607303651824,1.050636468465378
1.5351675837918959,1.0496643220366633
1.5488744372186092,1.043130632973
1.5625812906453225,1.0402618480134656
1.5762881440720358,1.0341562422865576
1.5899949974987493,1.0259013235527359
1.6037018509254626,1.0175957252890713
1.6174087043521759,1.009412622634667
1.6311155577788894,1.0014578949853992
1.6448224112056027,0.9926357738078465
1.658529264632316,0.9830955780047564
1.6722361180590293,0.9760236303345633
1.6859429714857428,0.9702934727431287
1.699649824912456,0.9634286318568706
1.7133566783391694,0.960308516730655
1.7270635317658827,0.9601611990137772
1.7407703851925962,0.9601553497362526
1.7544772386193095,0.9642830737203397
1.7681840920460228,0.9649725927582015
1.7818909454727363,0.9708038649297683
1.7955977988994496,0.9768446254495622
1.8093046523261629,0.9846230574463252
1.8230115057528762,0.9913001775725103
1.8367183591795897,0.999865339164063
1.850425212606303,1.0078467845928114
1.8641320660330163,1.0125898354040717
1.8778389194597296,1.0194096689931522
1.891545772886443,1.0240998994124142
1.9052526263131564,1.0288690618895115
1.9189594797398697,1.0297234585352257
1.9326663331665832,1.0254643181474192
1.9463731865932965,1.0274797829625668
1.9600800400200098,1.0225354387728207
1.973786893446723,1.0181341265441994
1.9874937468734366,1.0112089186882314
2.00120060030015,1.0045694613868839
2.014907453726863,0.9951434575163098
2.0286143071535765,0.9873468623699694
2.04232116058029,0.9785947092425598
2.0560280140070035,0.969319714970994
2.069734867433717,0.9661085930454185
2.08344172086043,0.9596500799627341
2.0971485742871434,0.9553133389800642
2.1108554277138567,0.9542991549537599
2.12456228114057,0.9552945929642559
2.1382691345672833,0.9549664279358225
2.1519759879939966,0.9594504515323549
2.1656828414207103,0.9635747352980473
2.1793896948474236,0.973285840786043
2.193096548274137,0.9824398097457302
2.20680340170085,0.9892079270143135
2.2205102551275635,0.9982627285568163
2.234217108554277,1.010114903711055
2.24792396198099,1.0186434652748164
2.261630815407704,1.0279043155163492
2.275337668834417,1.0350197990365577
2.2890445222611304,1.0425506435616823
2.3027513756878437,1.0497177310262014
2.316458229114557,1.0536800185039257
2.3301650825412703,1.0546984247489095
2.3438719359679836,1.053019380999749
2.3575787893946973,1.0528105347025796
2.3712856428214106,1.048374703386302
2.384992496248124,1.0447523888668655
2.3986993496748372,1.0369135882383103
2.4124062031015505,1.0274926118343006
2.426113056528264,1.0187270267586417
2.439819909954977,1.0093744328352825
2.4535267633816904,0.9992281939069508
2.467233616808404,0.9939765187157882
2.4809404702351174,0.9831120040786774
2.4946473236618307,0.9768918510816068
2.508354177088544,0.9738773217030853
2.5220610305152573,0.9693060786709696
2.5357678839419706,0.9651634750067613
2.549474737368684,0.9660015942213793
2.5631815907953976,0.9667296878260548
2.576888444222111,0.9703782296633505
2.5905952976488242,0.9732848044472101
2.6043021510755375,0.9785527219338448
2.618009004502251,0.9847724857651036
2.631715857928964,0.9925325422316134
2.6454227113556774,0.9990255825480001
2.659129564782391,1.0058849981630456
2.6728364182091044,1.0102014898644576
2.6865432716358177,1.0169907743967794
2.700250125062531,1.0207519584302043
2.7139569784892443,1.0210029673630432
2.7276638319159576,1.0240277259337538
2.741370685342671,1.022842261506664
2.755077538769384,1.0238256966908443
2.768784392196098,1.0187141392909744
2.7824912456228112,1.0160001529078673
2.7961980990495245,1.0092547805159764
2.809904952476238,1.0033421980785207
2.823611805902951,0.9951745988244453
2.8373186593296644,0.9895465193921165
2.8510255127563777,0.9827670800224748
2.8647323661830915,0.9767475110638498
2.8784392196098048,0.971250819483712
2.892146073036518,0.9671238410386845
2.9058529264632313,0.9629209069085796
2.9195597798899446,0.9594384306573291
2.933266633316658,0.9610365483214055
2.9469734867433712,0.9630677670675695
2.960680340170085,0.9663796880384615
2.9743871935967983,0.9686460167473924
2.9880940470235116,0.9757221114377361
3.001800900450225,0.9806370954284214
3.015507753876938,0.9864193868515482
3.0292146073036514,0.9940074947069812
3.0429214607303647,1.0025179931797648
3.056628314157078,1.008178232540868
3.0703351675837918,1.0148523531047227
3.084042021010505,1.0230440970609713
3.0977488744372184,1.026912946631196
3.1114557278639317,1.0299514249975623
3.125162581290645,1.0317048894352079
3.1388694347173582,1.0365397747604088
3.1525762881440715,1.0350800024189997
3.1662831415707853,1.0335629565277518
3.1799899949974986,1.0300326411070313
3.193696848424212,1.0279176372511192
3.207403701850925,1.0230021589915834
3.2211105552776385,1.0162216109275508
3.2348174087043517,1.0142747214783538
3.248524262131065,1.0086657088506539
3.262231115557779,1.0049170893411965
3.275937968984492,1.0000819353881445
3.2896448224112054,0.9972935308053169
3.3033516758379187,0.9952997322077763
3.317058529264632,0.9917885650285418
3.3307653826913453,0.9908299910072378
3.3444722361180586,0.9910557648726207
3.358179089544772,0.9934707839497493
3.3718859429714856,0.9911840873360072
3.385592796398199,0.9966456835166342
3.399299649824912,1.0001907372364356
3.4130065032516255,1.0021345912598916
3.4267133566783388,1.00370038771945
3.440420210105052,1.0075156001269636
3.4541270635317654,1.0113656949132013
3.467833916958479,1.0147188957453446
3.4815407703851924,1.0130314585782638
3.4952476238119057,1.0128102595427575
3.508954477238619,1.011656772181882
3.5226613306653323,1.010501264363068
3.5363681840920456,1.0069565724478493
3.550075037518759,1.0061720947357735
3.5637818909454726,1.0033377193992217
3.577488744372186,0.9963046159267372
3.591195597798899,0.9914640036940023
3.6049024512256125,0.9861019576824173
3.6186093046523258,0.9814345440684488
3.632316158079039,0.9755236798595117
3.6460230115057524,0.9754585569585673
3.659729864932466,0.9718428885903047
3.6734367183591794,0.9706326592261383
3.6871435717858927,0.9689594361214875
3.700850425212606,0.9701551735120665
3.7145572786393193,0.9703733472745407
3.7282641320660326,0.9748283153555298
3.741970985492746,0.9803055560348168
3.755677838919459,0.9830153742904651
3.769384692346173,0.9847918462157713
3.783091545772886,0.9912905852703146
3.7967983991995995,0.9960532662899714
3.810505252626313,1.0011786508533536
3.824212106053026,1.0047663140228067
3.8379189594797394,1.0099915878171073
3.8516258129064527,1.0122874447935029
3.8653326663331664,1.0166807191234266
3.8790395197598797,1.015582910434236
3.892746373186593,1.020025564274119
3.9064532266133063,1.016823689905928
3.9201600800400196,1.0178280308173393
3.933866933466733,1.0144549878808542
3.947573786893446,1.012642390472144
3.96128064032016,1.0072047318850474
3.974987493746873,1.001740459650135
3.9886943471735865,1.000068117363342
4.0024012006003,0.9961161926920777
4.016108054027013,0.9922296608081008
4.029814907453726,0.9908125506334938
4.04352176088044,0.9896299000613582
4.057228614307153,0.9868235284274285
4.070935467733866,0.9883394520463886
4.08464232116058,0.9867607696139308
4.098349174587293,0.9925436071889486
4.112056028014007,0.9949943772724026
4.12576288144072,0.9984854618517769
4.139469734867434,1.004317165195569
4.153176588294147,1.0085288764217448
4.16688344172086,1.0135874298887764
4.1805902951475735,1.0217598094864349
4.194297148574287,1.0250799201557308
4.208004002001,1.0287547989188974
4.221710855427713,1.034395771550681
4.235417708854427,1.0361391152907078
4.24912456228114,1.0386124165149917
4.262831415707853,1.0380639340706412
4.276538269134567,1.0355885288785467
4.29024512256128,1.0331901453464498
4.303951975987993,1.028293102675905
4.317658829414707,1.0223294351129386
4.331365682841421,1.0136588658064736
4.345072536268134,1.0070422739541198
4.358779389694847,0.9996337065070763
4.3724862431215605,0.9923109748745982
4.386193096548274,0.982420493688966
4.399899949974987,0.9740974893059066
4.4136068034017,0.9673810968352905
4.427313656828414,0.9613076146360027
4.441020510255127,0.9574743545188971
4.45472736368184,0.9532916623206261
4.468434217108554,0.9515031167542477
4.482141070535267,0.9507796837963026
4.49584792396198,0.9552876977135865
4.5095547773886935,0.9593483475528153
4.523261630815408,0.9656400109818352
4.536968484242121,0.9710987069498691
4.550675337668834,0.9766158890484579
4.5643821910955475,0.9871782125542569
4.578089044522261,0.994785140370375
4.591795897948974,1.0031517653546718
4.605502751375687,1.0106459254901754
4.619209604802401,1.0189572450616855
4.632916458229114,1.0231166047205587
4.646623311655827,1.0294100312230476
4.660330165082541,1.0299284036525234
4.674037018509254,1.0306649691963075
4.687743871935967,1.0306523644005459
4.7014507253626805,1.0285919753717785
4.715157578789395,1.0234699606447462
4.728864432216108,1.0210424949602825
4.742571285642821,1.012458902978918
4.756278139069535,1.0058620430283813
4.769984992496248,0.9991320115992419
4.783691845922961,0.9922938338677612
4.7973986993496744,0.9837985865321288
4.811105552776388,0.9778295480574645
4.824812406203101,0.9743472579638736
4.838519259629814,0.9684203204584075
4.852226113056528,0.9671257251961215
4.865932966483241,0.9669278831726706
4.879639819909954,0.9673805833917762
4.8933466733366675,0.9702773251629334
4.907053526763381,0.9773309157629388
4.920760380190095,0.9810748548424376
4.934467233616808,0.9883781383456333
4.948174087043522,0.9968629929978764
4.961880940470235,1.00462733319279
4.975587793896948,1.0158695044438926
4.9892946473236615,1.0229004905003127
5.003001500750375,1.0330337183489322
5.016708354177088,1.0395786667293752
5.030415207603801,1.0463006609689305
5.044122061030515,1.051487518938584
5.057828914457228,1.0540647468891016
5.071535767883941,1.0539326290018345
5.0852426213106545,1.0542023023995868
5.098949474737368,1.0499377686598084
5.112656328164081,1.0459164867821407
5.126363181590795,1.038849758068507
5.140070035017509,1.0303489458998867
5.153776888444222,1.0205949071793363
5.167483741870935,1.009499260704593
5.1811905952976485,1.0001867779243967
5.194897448724362,0.9900352014666303
5.208604302151075,0.9787271877819006
5.222311155577788,0.9692874230500182
5.236018009004502,0.964826269120992
5.249724862431215,0.9571659370876754
5.263431715857928,0.9537675525200825
5.2771385692846415,0.9511889112598474
5.290845422711355,0.9485477504568399
5.304552276138068,0.9523903551520803
5.318259129564782,0.9527059406434426
5.331965982991496,0.9604079760636982
5.345672836418209,0.9656862224896144
5.359379689844922,0.9736722629420371
5.3730865432716355,0.981259331765806
5.386793396698349,0.9881670953692282
5.400500250125062,0.9983700805094106
5.414207103551775,1.0067808002742018
5.427913956978489,1.010685492641895
5.441620810405202,1.020206800569472
5.455327663831915,1.0241686303361148
5.4690345172586285,1.0252338130889236
5.482741370685342,1.0260504130113395
5.496448224112055,1.0255477406932765
5.510155077538768,1.0230983022394609
5.523861930965483,1.0223011763712793
5.537568784392196,1.016685713396825
5.551275637818909,1.0109443345683944
5.5649824912456225,1.0063327007795222
5.578689344672336,0.9990868724600146
5.592396198099049,0.9937523891419552
5.606103051525762,0.9866477135094864
5.619809904952476,0.9798301302483334
5.633516758379189,0.9729598554768497
5.647223611805902,0.9719886336402656
5.660930465232616,0.9724577661543815
5.674637318659329,0.9668859320062648
5.688344172086042,0.9699164676710019
5.7020510255127554,0.969144144275956
5.71575787893947,0.9752565567369155
5.729464732366183,0.9831719663958383
5.743171585792896,0.9864380639639109
5.7568784392196095,0.9926234380057974
5.770585292646323,1.0033249110742992
5.784292146073036,1.008169436491794
5.797998999499749,1.0167980816737778
5.811705852926463,1.0251247071360938
5.825412706353176,1.0297978088679114
5.839119559779889,1.0361701879263345
5.852826413206603,1.0397225255312903
5.866533266633316,1.0428253348414285
5.880240120060029,1.0424436538982622
5.8939469734867425,1.0418548341284972
5.907653826913456,1.0416965456550609
5.92136068034017,1.0366628717008954
5.935067533766883,1.033436434392735
5.9487743871935965,1.0276977384009098
5.96248124062031,1.0199396621143852
5.976188094047023,1.0144819878146063
5.989894947473736,1.00791139848626
6.00360180090045,1.0001405835491428
6.017308654327163,0.9921480622036684
6.031015507753876,0.989093298757508
6.04472236118059,0.983261861969393
6.058429214607303,0.9792871482579596
6.072136068034016,0.9747759330901372
6.0858429214607295,0.9740482917040133
6.099549774887443,0.9737265587702555
6.113256628314156,0.9769727197943098
6.12696348174087,0.9773079066025445
6.1406703351675835,0.9793082756997584
6.154377188594297,0.9824270446793975
6.16808404202101,0.985974639514854
6.181790895447723,0.9891151354932505
6.195497748874437,0.9937704365585288
6.20920460230115,0.996370992941423
6.222911455727863,1.000705276432037
6.236618309154577,1.0051209182371794
6.25032516258129,1.0043540581012287
6.264032016008003,1.0061486903745542
6.2777388694347165,1.0057686996233657
6.29144572286143,1.0033856145164355
6.305152576288143,1.000878190645104
6.318859429714857,1.0021998223162478
6.3325662831415706,0.9967081313738003
6.346273136568284,0.9964382103939319
6.359979989994997,0.9897630998980772
6.37368684342171,0.9878177652013032
6.387393696848424,0.9862623089108492
6.401100550275137,0.9822415829986318
6.41480740370185,0.9786541130970563
6.428514257128564,0.9789050295133137
6.442221110555277,0.9784960493935462
6.45592796398199,0.9760111760947436
6.4696348174087035,0.9791535978881887
6.483341670835417,0.9821023240676847
6.49704852426213,0.9860770915898118
6.510755377688843,0.9906687366369886
6.524462231115558,0.9949344033729324
6.538169084542271,0.9991618936857606
6.551875937968984,1.0037457045132647
6.5655827913956974,1.0120097223535207
6.579289644822411,1.0131007558714757
6.592996498249124,1.0201057265018163
6.606703351675837,1.0242205044986241
6.620410205102551,1.026916749415068
6.634117058529264,1.0285718977485228
6.647823911955977,1.0310325315808961
6.6615307653826905,1.0263186490070824
6.675237618809404,1.0269020104333133
6.688944472236117,1.0245886230428227
6.70265132566283,1.0205069965139164
6.716358179089544,1.0159806360310877
6.730065032516258,1.0136994108885005
6.743771885942971,1.0055568462788766
6.7574787393696845,1.004548074111539
6.771185592796398,0.9989656496720364
6.784892446223111,0.9964030125194053
6.798599299649824,0.9921729044044034
6.812306153076538,0.9903621782125297
6.826013006503251,0.9892494045004855
6.839719859929964,0.9899660189194359
6.8534267133566775,0.9899300678745067
6.867133566783391,0.9912423303374629
6.880840420210104,0.9951257929202161
6.894547273636817,0.9989334925566661
6.908254127063531,1.002322522964715
6.921960980490245,1.004257659452675
6.935667833916958,1.0096690514559228
6.9493746873436715,1.0136706057397589
6.963081540770385,1.0151290505273542
6.976788394197098,1.018190114154272
6.990495247623811,1.0165891879508249
7.004202101050525,1.0184499172415844
7.017908954477238,1.017719133032236
7.031615807903951,1.0171301832349835
7.0453226613306645,1.0138526031490407
7.059029514757378,1.007925763014144
7.072736368184091,1.0047910593004417
7.086443221610804,0.9983631605232496
7.100150075037518,0.9918034216962804
7.113856928464231,0.9843072594560999
7.127563781890945,0.9774052704986942
7.1412706353176585,0.973362018040803
7.154977488744372,0.9665405364786396
7.168684342171085,0.9625529223300402
7.182391195597798,0.958723032534561
7.196098049024512,0.9569080086476951
7.209804902451225,0.9574293229729691
7.223511755877938,0.9567131394267085
7.2372186093046516,0.9572395164703188
7.250925462731365,0.9626440978530442
7.264632316158078,0.9695306848968841
7.278339169584791,0.975404186441991
7.292046023011505,0.9831296836823191
7.305752876438218,0.9917472536099498
7.319459729864932,0.9998292963225208
7.3331665832916455,1.0072473622422047
7.346873436718359,1.0172167686714662
