time,flux
0.0,1.000025278103055
0.013706853426713355,0.9951739396727485
0.02741370685342671,0.9922852044055369
0.041120560280140064,0.9873547734083743
0.05482741370685342,0.9830245527655067
0.06853426713356678,0.9783758056740647
0.08224112056028013,0.9762141138253968
0.09594797398699349,0.9754497414241947
0.10965482741370684,0.9725159510082341
0.1233616808404202,0.9730644479904504
0.13706853426713356,0.9722692264382339
0.1507753876938469,0.9742645336056384
0.16448224112056026,0.9760965146276953
0.1781890945472736,0.9796035586083106
0.19189594797398699,0.9830762588884884
0.20560280140070034,0.9883271771940203
0.21930965482741369,0.9916720672849535
0.23301650825412704,0.9958560050173186
0.2467233616808404,1.0005211982391302
0.26043021510755376,1.0040071457682047
0.2741370685342671,1.0066182320091388
0.28784392196098046,1.0084032408251098
0.3015507753876938,1.010925560887621
0.31525762881440716,1.01082234650407
0.3289644822411205,1.0105985242878857
0.34267133566783387,1.0100745094997206
0.3563781890945472,1.0070668665744706
0.3700850425212606,1.0041091979428007
0.38379189594797397,1.0003631684868646
0.3974987493746873,0.9960997386926578
0.41120560280140067,0.9940302420195214
0.424912456228114,0.9880652906942099
0.43861930965482737,0.9849840410399313
0.4523261630815407,0.9818667271188846
0.46603301650825407,0.977598591639655
0.4797398699349674,0.9754211591030091
0.4934467233616808,0.9731178215407106
0.5071535767883941,0.9735316947002686
0.5208604302151075,0.9735721599009547
0.5345672836418208,0.9734076158215769
0.5482741370685342,0.9771844552625869
0.5619809904952475,0.9787476989796553
0.5756878439219609,0.9829674873169657
0.5893946973486743,0.9871653886540708
0.6031015507753876,0.9905434412909071
0.616808404202101,0.9949832109979053
0.6305152576288143,0.9992109158172798
0.6442221110555277,1.0038654638283249
0.657928964482241,1.007206351401001
0.6716358179089544,1.0098574039235824
0.6853426713356677,1.0120502268462208
0.6990495247623811,1.0139698715160523
0.7127563781890944,1.0151615891828507
0.7264632316158078,1.013207446862241
0.7401700850425212,1.0133253541741614
0.7538769384692345,1.0115410490643861
0.7675837918959479,1.008597048571282
0.7812906453226612,1.0044553392219502
0.7949974987493746,1.001077246538384
0.8087043521760879,0.9977057048913162
0.8224112056028013,0.9926100566999445
0.8361180590295146,0.988627826413104
0.849824912456228,0.9864020532289671
0.8635317658829413,0.9827973717732488
0.8772386193096547,0.9812763628315248
0.8909454727363681,0.981374724176904
0.9046523261630814,0.978623264626192
0.9183591795897948,0.9794781101707055
0.9320660330165081,0.9812103081967162
0.9457728864432215,0.9827408505030232
0.9594797398699348,0.9861813909272115
0.9731865932966483,0.9888621095703514
0.9868934467233615,0.9940537882692044
1.000600300150075,0.9974698024355017
1.0143071535767882,1.004690028841363
1.0280140070035018,1.0076551164299656
1.041720860430215,1.0122024672168453
1.0554277138569284,1.0156137273989327
1.0691345672836416,1.019128654157555
1.0828414207103552,1.0205342323015347
1.0965482741370685,1.0220135660447784
1.1102551275637818,1.0217285438990593
1.123961980990495,1.0223151785258047
1.1376688344172086,1.0200535316763553
1.1513756878439219,1.018999814106902
1.1650825412706352,1.015518192508238
1.1787893946973487,1.0130417639951177
1.192496248124062,1.008265132626345
1.2062031015507753,1.0040738547957633
1.2199099549774886,1.000991875725287
1.233616808404202,0.9983553159094496
1.2473236618309154,0.99350583007238
1.2610305152576287,0.9898339080466426
1.274737368684342,0.9889784539503916
1.2884442221110555,0.9877664164220497
1.3021510755377688,0.9879651357343868
1.315857928964482,0.9863742224066521
1.3295647823911956,0.9882760589094061
1.3432716358179089,0.9903985667312284
1.3569784892446222,0.9920698636716068
1.3706853426713355,0.9975117019384316
1.384392196098049,1.0016234945850466
1.3980990495247623,1.0070623634515012
1.4118059029514756,1.009553591617089
1.4255127563781889,1.0144334271642113
1.4392196098049024,1.0187820670854764
1.4529264632316157,1.0228584108319267
1.466633316658329,1.0242145832220175
1.4803401700850425,1.0266131280003918
1.4940470235117558,1.0275957977586194
1.507753876938469,1.0265546136380572
1.5214607303651824,1.0251621691760815
1.5351675837918959,1.0242916340791925
1.5488744372186092,1.0228207785204733
1.5625812906453225,1.0209862493579922
1.5762881440720358,1.0154174631293906
1.5899949974987493,1.012699611779403
1.6037018509254626,1.0073137737858349
1.6174087043521759,1.0027491242079711
1.6311155577788894,0.9989370726585644
1.6448224112056027,0.9947809681901589
1.658529264632316,0.9930889811869962
1.6722361180590293,0.9903137479762865
1.6859429714857428,0.9894355668518205
1.699649824912456,0.9877224522800364
1.7133566783391694,0.989712738227484
1.7270635317658827,0.9910397290303358
1.7407703851925962,0.9937488255119055
1.7544772386193095,0.9950475174207157
1.7681840920460228,0.999239782444555
1.7818909454727363,1.0022667975380997
1.7955977988994496,1.0065079874779752
1.8093046523261629,1.0112708051010013
1.8230115057528762,1.0156530369996137
1.8367183591795897,1.0185259924344803
1.850425212606303,1.024323857769754
1.8641320660330163,1.0225543018010945
1.8778389194597296,1.0261448544808678
1.891545772886443,1.0261500811887942
1.9052526263131564,1.0255445688758282
1.9189594797398697,1.0235726487736254
1.9326663331665832,1.0222095282610206
1.9463731865932965,1.0189216125836995
1.9600800400200098,1.0148509590304269
1.973786893446723,1.012434283914133
1.9874937468734366,1.0067409408909032
2.00120060030015,1.00322434841368
2.014907453726863,0.998904620637787
2.0286143071535765,0.9939196367736126
2.04232116058029,0.9921401252373461
2.0560280140070035,0.9881083586901881
2.069734867433717,0.9864963762041019
2.08344172086043,0.9835976571940113
2.0971485742871434,0.9838586870690442
2.1108554277138567,0.9839449702902168
2.12456228114057,0.9845310299597226
2.1382691345672833,0.988087471335077
2.1519759879939966,0.9914215344796078
2.1656828414207103,0.9949999361195765
2.1793896948474236,0.9975128435920558
2.193096548274137,1.0014262113223118
2.20680340170085,1.0054303112819811
2.2205102551275635,1.0098051686727867
2.234217108554277,1.0121108454930792
2.24792396198099,1.015115962961461
2.261630815407704,1.016049248049655
2.275337668834417,1.0187445706962266
2.2890445222611304,1.0193647746208132
2.3027513756878437,1.0179235725618467
2.316458229114557,1.0146605313091477
2.3301650825412703,1.0140576050153434
2.3438719359679836,1.0107369613929096
2.3575787893946973,1.0065433262263204
2.3712856428214106,1.0022828960852777
2.384992496248124,0.9975927914275242
2.3986993496748372,0.9947844539033808
2.4124062031015505,0.9905765981398228
2.426113056528264,0.9845769191288041
2.439819909954977,0.9822891625929193
2.4535267633816904,0.9795955200212048
2.467233616808404,0.9761963003338534
2.4809404702351174,0.9772092098207338
2.4946473236618307,0.9754121586724934
2.508354177088544,0.9762805425047708
2.5220610305152573,0.9787001859618861
2.5357678839419706,0.9810267274067751
2.549474737368684,0.9835627570254396
2.5631815907953976,0.9872310871851018
2.576888444222111,0.9908807780129161
2.5905952976488242,0.994508346473669
2.6043021510755375,1.000250441230748
2.618009004502251,1.0040038923837842
2.631715857928964,1.0071509398188352
2.6454227113556774,1.0097264499388117
2.659129564782391,1.0103166547850193
2.6728364182091044,1.012544235365802
2.6865432716358177,1.0125664525286762
2.700250125062531,1.0105706164379578
2.7139569784892443,1.0098436956022019
2.7276638319159576,1.007397237954874
2.741370685342671,1.0029382843448367
2.755077538769384,1.0000319666302957
2.768784392196098,0.9966633047965843
2.7824912456228112,0.9926866254440763
2.7961980990495245,0.9869103792933674
2.809904952476238,0.985249819262004
2.823611805902951,0.9786805989800751
2.8373186593296644,0.977029819686101
2.8510255127563777,0.9743358119027518
2.8647323661830915,0.9740362524146989
2.8784392196098048,0.971227317556348
2.892146073036518,0.9723161822720954
2.9058529264632313,0.9737164582322428
2.9195597798899446,0.97513270827768
2.933266633316658,0.979494944422555
2.9469734867433712,0.9811816223802777
2.960680340170085,0.9849944532744489
2.9743871935967983,0.9893884678435522
2.9880940470235116,0.9957134851737619
3.001800900450225,0.9990450547102605
3.015507753876938,1.0022828923385496
3.0292146073036514,1.0039557546885753
3.0429214607303647,1.0095938644096023
3.056628314157078,1.0088876984359711
3.0703351675837918,1.0117462169660327
3.084042021010505,1.0109652340638149
3.0977488744372184,1.0111076584995056
3.1114557278639317,1.0105210837135181
3.125162581290645,1.0057731669213181
3.1388694347173582,1.003554773110027
3.1525762881440715,1.0018414732325995
3.1662831415707853,0.9964624517737629
3.1799899949974986,0.9933516964303443
3.193696848424212,0.9898215956782607
3.207403701850925,0.9848048450581414
3.2211105552776385,0.9826516897673374
3.2348174087043517,0.9787991549038771
3.248524262131065,0.9775450731155413
3.262231115557779,0.9753287711694654
3.275937968984492,0.9757335555423073
3.2896448224112054,0.9759679350330245
3.3033516758379187,0.9780593479287208
3.317058529264632,0.9788274194809116
3.3307653826913453,0.981527352368429
3.3444722361180586,0.9870444823251894
3.358179089544772,0.9901498201941256
3.3718859429714856,0.9944023048623721
3.385592796398199,1.000473473374585
3.399299649824912,1.0047632995386877
3.4130065032516255,1.0088582123974879
3.4267133566783388,1.0115303308341543
3.440420210105052,1.015829016096808
3.4541270635317654,1.0173457810323792
3.467833916958479,1.0172045666358824
3.4815407703851924,1.0175288974199808
3.4952476238119057,1.0168318527601636
3.508954477238619,1.017371499828697
3.5226613306653323,1.013254024399918
3.5363681840920456,1.0109245190377616
3.550075037518759,1.0056313583151133
3.5637818909454726,1.0021942538710225
3.577488744372186,0.9989572083076319
3.591195597798899,0.9940441998990199
3.6049024512256125,0.9914904134418777
3.6186093046523258,0.9893328577785182
3.632316158079039,0.9852649926439665
3.6460230115057524,0.983322808608153
3.659729864932466,0.9830824582304507
3.6734367183591794,0.9834297050847824
3.6871435717858927,0.9841039372683273
3.700850425212606,0.9860576549885219
3.7145572786393193,0.9881507784943622
3.7282641320660326,0.9912589713290813
3.741970985492746,0.9962304098565753
3.755677838919459,0.9989114135437656
3.769384692346173,1.003165406548055
3.783091545772886,1.0064850439534798
3.7967983991995995,1.01150237031656
3.810505252626313,1.015929864619276
3.824212106053026,1.0196678889844397
3.8379189594797394,1.0237109812276346
3.8516258129064527,1.0254187214127166
3.8653326663331664,1.0239763219391562
3.8790395197598797,1.0247055532744191
3.892746373186593,1.0230131303380035
3.9064532266133063,1.0230099161831667
3.9201600800400196,1.0185980163113284
3.933866933466733,1.0164100877428321
3.947573786893446,1.0132713800901496
3.96128064032016,1.0082269596103037
3.974987493746873,1.0023458903391145
3.9886943471735865,0.9996287029024148
4.0024012006003,0.9972859432904208
4.016108054027013,0.9928880950584323
4.029814907453726,0.9913511676735371
4.04352176088044,0.9885567488859998
4.057228614307153,0.9901350673714033
4.070935467733866,0.9889172517610398
4.08464232116058,0.9885012904228568
4.098349174587293,0.9908326313610767
4.112056028014007,0.9933502645125349
4.12576288144072,0.9966172126094739
4.139469734867434,1.000780650993452
4.153176588294147,1.005982562061504
4.16688344172086,1.0094818702490702
4.1805902951475735,1.0152471548648807
4.194297148574287,1.0174764059815309
4.208004002001,1.0192866044083584
4.221710855427713,1.0229361933215328
4.235417708854427,1.0252296035934139
4.24912456228114,1.0270188653423022
4.262831415707853,1.0268361660986325
4.276538269134567,1.0273241177400332
4.29024512256128,1.0269536664188226
4.303951975987993,1.023708848508954
4.317658829414707,1.0195259509570718
4.331365682841421,1.0181489567775384
4.345072536268134,1.0131413821785882
4.358779389694847,1.0088118957557262
4.3724862431215605,1.0050126032277338
4.386193096548274,0.9996147367590178
4.399899949974987,0.996674528125891
4.4136068034017,0.993110766810796
4.427313656828414,0.9917776001511835
4.441020510255127,0.989472331182905
4.45472736368184,0.988124702253579
4.468434217108554,0.9876772841238182
4.482141070535267,0.9882200298571928
4.49584792396198,0.9906583236132338
4.5095547773886935,0.9923249776465193
4.523261630815408,0.9962279104573674
4.536968484242121,0.9990252732857497
4.550675337668834,1.003303550090432
4.5643821910955475,1.0068544141048954
4.578089044522261,1.0112651898606346
4.591795897948974,1.0150228795395704
4.605502751375687,1.0181118467303036
4.619209604802401,1.0202662961760838
4.632916458229114,1.0214511117309812
4.646623311655827,1.022494485558438
4.660330165082541,1.0222728662818354
4.674037018509254,1.0218035290994107
4.687743871935967,1.0213953995029301
4.7014507253626805,1.0175291247346605
4.715157578789395,1.0144417510465509
4.728864432216108,1.0103877686753484
4.742571285642821,1.0072194106619339
4.756278139069535,1.0027351780022058
4.769984992496248,0.9970257182634122
4.783691845922961,0.992685334200897
4.7973986993496744,0.9878799643316601
4.811105552776388,0.9866314210408766
4.824812406203101,0.9824612949439647
4.838519259629814,0.9834034656647387
4.852226113056528,0.9804185899131623
4.865932966483241,0.9807778347993767
4.879639819909954,0.9817504098712391
4.8933466733366675,0.9749764527930669
4.907053526763381,0.9859202280295892
4.920760380190095,0.988712722448237
4.934467233616808,0.9914353258209914
4.948174087043522,0.9954159390891005
4.961880940470235,1.0007535517484034
4.975587793896948,1.0036317491544562
4.9892946473236615,1.0077689136312575
5.003001500750375,1.0106223143057973
5.016708354177088,1.013471925840021
5.030415207603801,1.01405365281288
5.044122061030515,1.0155027335547602
5.057828914457228,1.0144664740013323
5.071535767883941,1.0134752207772366
5.0852426213106545,1.0134071908896278
5.098949474737368,1.008954107186986
5.112656328164081,1.0065964959906655
5.126363181590795,1.0026121950570184
5.140070035017509,0.9975807966956688
5.153776888444222,0.9935093230279355
5.167483741870935,0.9880393540188253
5.1811905952976485,0.984600811486404
5.194897448724362,0.9817487498615015
5.208604302151075,0.9789850919349589
5.222311155577788,0.9763349503899038
5.236018009004502,0.9750333303964794
5.249724862431215,0.9749592301098593
5.263431715857928,0.9731175188931145
5.2771385692846415,0.974286052550871
5.290845422711355,0.9775679651296674
5.304552276138068,0.9802696732063872
5.318259129564782,0.9831706898619492
5.331965982991496,0.987837891475461
5.345672836418209,0.9912876873162861
5.359379689844922,0.9956183288292226
5.3730865432716355,0.9999389533113889
5.386793396698349,1.0047479621957978
5.400500250125062,1.0073696837406223
5.414207103551775,1.008559712080567
5.427913956978489,1.0092572565241724
5.441620810405202,1.0101277163016091
5.455327663831915,1.0112677619068207
5.4690345172586285,1.0105226697551941
5.482741370685342,1.007754853598218
5.496448224112055,1.0050637113935328
5.510155077538768,1.0007230131211664
5.523861930965483,0.9984327298830973
5.537568784392196,0.9939606131603143
5.551275637818909,0.9898200175847911
5.5649824912456225,0.985223331770378
5.578689344672336,0.9823224921116261
5.592396198099049,0.9785380878842264
5.606103051525762,0.977314967093885
5.619809904952476,0.9712491976481588
5.633516758379189,0.9736894902141434
5.647223611805902,0.9718045836390851
5.660930465232616,0.9720949671193935
5.674637318659329,0.9742343851089355
5.688344172086042,0.9781286471227633
5.7020510255127554,0.9809742714352112
5.71575787893947,0.9834398522420832
5.729464732366183,0.9884406455155782
5.743171585792896,0.9938243342243018
5.7568784392196095,0.9978898454097096
5.770585292646323,1.002737292895333
5.784292146073036,1.0051500872244612
5.797998999499749,1.0085511437526666
5.811705852926463,1.0098433867300414
5.825412706353176,1.0144837533476874
5.839119559779889,1.0126684548817533
5.852826413206603,1.0132206614040042
5.866533266633316,1.0118160316486418
5.880240120060029,1.0095669319720433
5.8939469734867425,1.0082200187611403
5.907653826913456,1.0052854927118897
5.92136068034017,1.0011591306198284
5.935067533766883,0.9956603645989258
5.9487743871935965,0.9943899122338193
5.96248124062031,0.9874864239055846
5.976188094047023,0.9861572972607957
5.989894947473736,0.9826334189966031
6.00360180090045,0.9805407477802695
6.017308654327163,0.9795000418538139
6.031015507753876,0.978900266196366
6.04472236118059,0.9771511641015631
6.058429214607303,0.9791510696921861
6.072136068034016,0.982357901383199
6.0858429214607295,0.9825950327090204
6.099549774887443,0.9885777924623926
6.113256628314156,0.9922664796262898
6.12696348174087,0.9964355170443352
6.1406703351675835,1.0006423439037206
6.154377188594297,1.0055281293186773
6.16808404202101,1.0089032526239206
6.181790895447723,1.012974115202036
6.195497748874437,1.0151095490849167
6.20920460230115,1.0177191375879227
6.222911455727863,1.020773009024518
6.236618309154577,1.0199522860443586
6.25032516258129,1.0208392762579448
6.264032016008003,1.019195938869861
6.2777388694347165,1.0153444498300899
6.29144572286143,1.0149678365574546
6.305152576288143,1.01193544526855
6.318859429714857,1.0089980361223958
6.3325662831415706,1.0043025952827935
6.346273136568284,0.9998993828661733
6.359979989994997,0.9961475291048041
6.37368684342171,0.9917778760254672
6.387393696848424,0.9895248103043345
6.401100550275137,0.9874556432404633
6.41480740370185,0.9857688781877108
6.428514257128564,0.985483930611388
6.442221110555277,0.9864904521828141
6.45592796398199,0.9882132615243201
6.4696348174087035,0.9889126964184266
6.483341670835417,0.9921377785339183
6.49704852426213,0.9968372743731166
6.510755377688843,0.9999624673810725
6.524462231115558,1.0040231822008612
6.538169084542271,1.0081602113216384
6.551875937968984,1.0130937082929499
6.5655827913956974,1.0172587567210465
6.579289644822411,1.0208167792115828
6.592996498249124,1.0228965969723707
6.606703351675837,1.0263050131347808
6.620410205102551,1.026064746201187
6.634117058529264,1.0267270809996645
6.647823911955977,1.0263190916029223
6.6615307653826905,1.0258588307516994
6.675237618809404,1.022818047642995
6.688944472236117,1.0207388943512368
6.70265132566283,1.0161959716308233
6.716358179089544,1.0125996135674404
6.730065032516258,1.0082582627009173
6.743771885942971,1.0038188659034972
6.7574787393696845,0.999275416603769
6.771185592796398,0.9964189741001023
6.784892446223111,0.9916592529113354
6.798599299649824,0.9917950704960693
6.812306153076538,0.9902882193438888
6.826013006503251,0.9881847954923382
6.839719859929964,0.9874562542977673
6.8534267133566775,0.9895901045691894
6.867133566783391,0.9926626386334394
6.880840420210104,0.995535559237765
6.894547273636817,0.9979918580398748
6.908254127063531,1.002874471564261
6.921960980490245,1.005774553113181
6.935667833916958,1.0099184342292715
6.9493746873436715,1.0149305817522942
6.963081540770385,1.0173334780620131
6.976788394197098,1.021426243607769
6.990495247623811,1.0233853519215974
7.004202101050525,1.0249561375193468
7.017908954477238,1.0269736470209843
7.031615807903951,1.0281498237672213
7.0453226613306645,1.0271393856833642
7.059029514757378,1.0229294530885318
7.072736368184091,1.0208361178164094
7.086443221610804,1.0166728990133114
7.100150075037518,1.014571659330334
7.113856928464231,1.009976737756007
7.127563781890945,1.005106725041563
7.1412706353176585,1.00074235248832
7.154977488744372,0.9968904769069881
7.168684342171085,0.9931290687752655
7.182391195597798,0.9890141839615352
7.196098049024512,0.9874241099336349
7.209804902451225,0.9870431318041976
7.223511755877938,0.9855513424251994
7.2372186093046516,0.9877144699221762
7.250925462731365,0.9855595596608719
7.264632316158078,0.9877750512673837
7.278339169584791,0.9913871361705177
7.292046023011505,0.995651508229536
7.305752876438218,0.9998327121127949
7.319459729864932,1.0026950218192008
7.3331665832916455,1.006155274436435
7.346873436718359,1.0104121327317168
