time,flux
0.0,0.9790937350253713
0.013706853426713355,0.9844138730392258
0.02741370685342671,0.9893981879190467
0.041120560280140064,0.9970594008551248
0.05482741370685342,1.001178341196205
0.06853426713356678,1.0070965744522145
0.08224112056028013,1.0122718656078933
0.09594797398699349,1.0187667923718315
0.10965482741370684,1.0246773303359578
0.1233616808404202,1.0289957115370396
0.13706853426713356,1.0307809540095434
0.1507753876938469,1.035773119915715
0.16448224112056026,1.0373369698334687
0.1781890945472736,1.0395603476735067
0.19189594797398699,1.0413372979318314
0.20560280140070034,1.0397835613150908
0.21930965482741369,1.0370856797086085
0.23301650825412704,1.0363222858442056
0.2467233616808404,1.0331456680487283
0.26043021510755376,1.0290853194745355
0.2741370685342671,1.0250836067890028
0.28784392196098046,1.0197545931541336
0.3015507753876938,1.0164298438100918
0.31525762881440716,1.0084020648569774
0.3289644822411205,1.004561482657829
0.34267133566783387,0.9987224167749484
0.3563781890945472,0.9931430917216593
0.3700850425212606,0.9877002934442092
0.38379189594797397,0.9806551043376809
0.3974987493746873,0.97630623070769
0.41120560280140067,0.9711763740436052
0.424912456228114,0.9688899103819881
0.43861930965482737,0.9652594929385939
0.4523261630815407,0.9641872724883147
0.46603301650825407,0.9612924847471483
0.4797398699349674,0.9615513028312782
0.4934467233616808,0.960906616719051
0.5071535767883941,0.9632488415176799
0.5208604302151075,0.9653457644771424
0.5345672836418208,0.968371645210217
0.5482741370685342,0.9703392225584885
0.5619809904952475,0.9760382408885955
0.5756878439219609,0.980477589972016
0.5893946973486743,0.9849115115340777
0.6031015507753876,0.9906327742660365
0.616808404202101,0.99329540975264
0.6305152576288143,1.0016005220489823
0.6442221110555277,1.007447117529879
0.657928964482241,1.0130817298288217
0.6716358179089544,1.0186041428787436
0.6853426713356677,1.0226277105099135
0.6990495247623811,1.0273519689353683
0.7127563781890944,1.0306675323138774
0.7264632316158078,1.0322086188813535
0.7401700850425212,1.0348954525385199
0.7538769384692345,1.036155092500036
0.7675837918959479,1.0354958549345799
0.7812906453226612,1.0374145668726662
0.7949974987493746,1.0340335652961465
0.8087043521760879,1.0341067716005805
0.8224112056028013,1.029546614184419
0.8361180590295146,1.026352502875914
0.849824912456228,1.0227549492981491
0.8635317658829413,1.0194982807132065
0.8772386193096547,1.0139379275842522
0.8909454727363681,1.0084907950320519
0.9046523261630814,1.0035011622953565
0.9183591795897948,0.9979339665092082
0.9320660330165081,0.992317902326875
0.9457728864432215,0.9879448945735041
0.9594797398699348,0.9826816550933932
0.9731865932966483,0.9779837396601428
0.9868934467233615,0.9740391030798363
1.000600300150075,0.9708858453851817
1.0143071535767882,0.9678761679501229
1.0280140070035018,0.966040981459333
1.041720860430215,0.9657876974027757
1.0554277138569284,0.9651022634401054
1.0691345672836416,0.9662228491932098
1.0828414207103552,0.9673185769465211
1.0965482741370685,0.969453055796168
1.1102551275637818,0.9722675602586628
1.123961980990495,0.9733857852467366
1.1376688344172086,0.9775010598259374
1.1513756878439219,0.9828359630569536
1.1650825412706352,0.9873532294254665
1.1787893946973487,0.9930805894293171
1.192496248124062,0.9956454851106441
1.2062031015507753,1.0017682032983035
1.2199099549774886,1.0090585900777607
1.233616808404202,1.0107052413998538
1.2473236618309154,1.0157108942430957
1.2610305152576287,1.0205672243321102
1.274737368684342,1.0232178016328475
1.2884442221110555,1.027602388270601
1.3021510755377688,1.0285322693934702
1.315857928964482,1.0312090024707259
1.3295647823911956,1.0316465360720601
1.3432716358179089,1.032286088688587
1.3569784892446222,1.0321556577643174
1.3706853426713355,1.0297665390578328
1.384392196098049,1.0299327716092566
1.3980990495247623,1.0282068624404999
1.4118059029514756,1.0251192294712719
1.4255127563781889,1.0203104155245333
1.4392196098049024,1.0146214030591318
1.4529264632316157,1.013205488690996
1.466633316658329,1.008560935272128
1.4803401700850425,1.002725275021303
1.4940470235117558,0.9990198433724559
1.507753876938469,0.9934593638030945
1.5214607303651824,0.9907134504089741
1.5351675837918959,0.9863960356134209
1.5488744372186092,0.9821901702619467
1.5625812906453225,0.9793926562504506
1.5762881440720358,0.9758830297936173
1.5899949974987493,0.9737934906315224
1.6037018509254626,0.9707619636574905
1.6174087043521759,0.971063018886309
1.6311155577788894,0.9719934210102698
1.6448224112056027,0.9698374374230109
1.658529264632316,0.970572309264634
1.6722361180590293,0.9728183529183694
1.6859429714857428,0.9762137524705634
1.699649824912456,0.9770482529474316
1.7133566783391694,0.9807258641058577
1.7270635317658827,0.9848936127359448
1.7407703851925962,0.9895302192843258
1.7544772386193095,0.991059676839497
1.7681840920460228,0.9958389778320526
1.7818909454727363,0.9998484517358717
1.7955977988994496,1.0035534169811882
1.8093046523261629,1.0099789007952058
1.8230115057528762,1.012634208386219
1.8367183591795897,1.0160604731995622
1.850425212606303,1.0192442188550983
1.8641320660330163,1.02189446032925
1.8778389194597296,1.023613196698068
1.891545772886443,1.0256653457526175
1.9052526263131564,1.0256739105145258
1.9189594797398697,1.0268412565097538
1.9326663331665832,1.0264797486445212
1.9463731865932965,1.025483063152424
1.9600800400200098,1.0255324441689118
1.973786893446723,1.0226086417544331
1.9874937468734366,1.0205017007623833
2.00120060030015,1.0166164215560853
2.014907453726863,1.0136546796112722
2.0286143071535765,1.0113052308595238
2.04232116058029,1.0081542923505478
2.0560280140070035,1.0037271605383804
2.069734867433717,0.9998358737485554
2.08344172086043,0.9962452704677942
2.0971485742871434,0.9906994245860185
2.1108554277138567,0.9898061462959769
2.12456228114057,0.9863145757064253
2.1382691345672833,0.9831884088907821
2.1519759879939966,0.9819491463045102
2.1656828414207103,0.9788017215585911
2.1793896948474236,0.9774918372093894
2.193096548274137,0.9755570617285627
2.20680340170085,0.975987880306675
2.2205102551275635,0.9762583683304359
2.234217108554277,0.9760430774729814
2.24792396198099,0.9775769816852675
2.261630815407704,0.979508774048307
2.275337668834417,0.981207287869949
2.2890445222611304,0.98341973925278
2.3027513756878437,0.9861401059825347
2.316458229114557,0.9895624084116736
2.3301650825412703,0.9923253027563692
2.3438719359679836,0.995269940759103
2.3575787893946973,0.9983651075546052
2.3712856428214106,1.0011072839701012
2.384992496248124,1.0059584629580225
2.3986993496748372,1.007722994645859
2.4124062031015505,1.0104899245729069
2.426113056528264,1.0134079205517204
2.439819909954977,1.0162942118180136
2.4535267633816904,1.017330991522737
2.467233616808404,1.0187963024201052
2.4809404702351174,1.022613307405238
2.4946473236618307,1.0211755632595008
2.508354177088544,1.0226959797485404
2.5220610305152573,1.0209726185287262
2.5357678839419706,1.0200918419718095
2.549474737368684,1.0186865780210452
2.5631815907953976,1.017598694544535
2.576888444222111,1.0151524522015662
2.5905952976488242,1.0133028033730833
2.6043021510755375,1.0117086633579333
2.618009004502251,1.0090240547181022
2.631715857928964,1.0061097722784613
2.6454227113556774,1.0039960220172135
2.659129564782391,0.9998262085246444
2.6728364182091044,0.9977268813629276
2.6865432716358177,0.9941451793016544
2.700250125062531,0.9940451247348855
2.7139569784892443,0.9887883250042786
2.7276638319159576,0.9889653605741157
2.741370685342671,0.9870811481412078
2.755077538769384,0.9849186572535814
2.768784392196098,0.9824954963465652
2.7824912456228112,0.9819409952249465
2.7961980990495245,0.9809943329562343
2.809904952476238,0.9825305771610634
2.823611805902951,0.9806842009191453
2.8373186593296644,0.983137261609305
2.8510255127563777,0.9838712625421254
2.8647323661830915,0.985262915148188
2.8784392196098048,0.9869471130782715
2.892146073036518,0.9884456026860019
2.9058529264632313,0.9897817496355329
2.9195597798899446,0.9931754517984708
2.933266633316658,0.9949962497146384
2.9469734867433712,0.9965730355829654
2.960680340170085,1.0006846969833507
2.9743871935967983,1.001323495411371
2.9880940470235116,1.0049483296361474
3.001800900450225,1.008434104938196
3.015507753876938,1.0080259091185793
3.0292146073036514,1.0102763526051726
3.0429214607303647,1.0122537794952775
3.056628314157078,1.013220559084896
3.0703351675837918,1.0146520566530817
3.084042021010505,1.0144389128093532
3.0977488744372184,1.0158016909696441
3.1114557278639317,1.0147493986947171
3.125162581290645,1.0147859687644878
3.1388694347173582,1.015067865003433
3.1525762881440715,1.0147615375944132
3.1662831415707853,1.0132760063696962
3.1799899949974986,1.0134456234245415
3.193696848424212,1.0109016138018478
3.207403701850925,1.0092123833480813
3.2211105552776385,1.007641234528291
3.2348174087043517,1.0062722423997144
3.248524262131065,1.003465901936721
3.262231115557779,1.0015288191068783
3.275937968984492,0.9985321651536855
3.2896448224112054,0.996520150831283
3.3033516758379187,0.9956297277656442
3.317058529264632,0.9945259040215271
3.3307653826913453,0.992687579493412
3.3444722361180586,0.9901008014107324
3.358179089544772,0.9882214599321782
3.3718859429714856,0.9881079862922546
3.385592796398199,0.9872458397628758
3.399299649824912,0.9864382949247954
3.4130065032516255,0.9863299144183445
3.4267133566783388,0.9869392647415647
3.440420210105052,0.9862738646577378
3.4541270635317654,0.9856863633195272
3.467833916958479,0.987469713230391
3.4815407703851924,0.9879711544987623
3.4952476238119057,0.9887930751795649
3.508954477238619,0.9908366871434001
3.5226613306653323,0.9932978271224208
3.5363681840920456,0.9921504461391832
3.550075037518759,0.9957230438187444
3.5637818909454726,0.9963209041169631
3.577488744372186,0.9990206314662269
3.591195597798899,1.0014258390526947
3.6049024512256125,1.0029848872433
3.6186093046523258,1.0040087516509157
3.632316158079039,1.0066223583261877
3.6460230115057524,1.0080015573150434
3.659729864932466,1.0103824108378379
3.6734367183591794,1.0115044611691202
3.6871435717858927,1.0111652826429096
3.700850425212606,1.013185232771557
3.7145572786393193,1.0136144489676748
3.7282641320660326,1.0154297459166837
3.741970985492746,1.0158186161283045
3.755677838919459,1.0132756167691988
3.769384692346173,1.0134117997887668
3.783091545772886,1.012882296001822
3.7967983991995995,1.0121885302613587
3.810505252626313,1.012133715549498
3.824212106053026,1.0103517924642804
3.8379189594797394,1.0078843170078986
3.8516258129064527,1.006020675626107
3.8653326663331664,1.004357735357312
3.8790395197598797,1.003640988335708
3.892746373186593,1.0005027368656696
3.9064532266133063,0.9994386450877933
3.9201600800400196,0.9962396680847235
3.933866933466733,0.9942729137941505
3.947573786893446,0.9933695689953179
3.96128064032016,0.9914973734320279
3.974987493746873,0.991081447172444
3.9886943471735865,0.9879560689681772
4.0024012006003,0.9877190074942296
4.016108054027013,0.9859770274986913
4.029814907453726,0.9857062994099945
4.04352176088044,0.9848580230530051
4.057228614307153,0.9843534908954578
4.070935467733866,0.9853553088230695
4.08464232116058,0.9853269460409507
4.098349174587293,0.9853691900448076
4.112056028014007,0.9863740710681356
4.12576288144072,0.988026612701324
4.139469734867434,0.9896972953484143
4.153176588294147,0.991449453894945
4.16688344172086,0.9934388285197269
4.1805902951475735,0.994394937572869
4.194297148574287,0.9972751433088332
4.208004002001,1.0001396445678818
4.221710855427713,1.0026213669446165
4.235417708854427,1.0065941915711587
4.24912456228114,1.0067747350126697
4.262831415707853,1.0096417981708037
4.276538269134567,1.0118020522495814
4.29024512256128,1.0134124632941923
4.303951975987993,1.0142697880636533
4.317658829414707,1.0160422908932176
4.331365682841421,1.016736573819043
4.345072536268134,1.0179027932903517
4.358779389694847,1.0172922496732564
4.3724862431215605,1.0177253822107577
4.386193096548274,1.0175172999440367
4.399899949974987,1.0165354767415122
4.4136068034017,1.0146424622124275
4.427313656828414,1.014163152198776
4.441020510255127,1.0116565967206332
4.45472736368184,1.0094615162604568
4.468434217108554,1.0070693366011614
4.482141070535267,1.0042531292361754
4.49584792396198,1.003384214822862
4.5095547773886935,1.0019010984549228
4.523261630815408,0.9976144791679794
4.536968484242121,0.9947961807737828
4.550675337668834,0.9917788671843051
4.5643821910955475,0.9892159551173072
4.578089044522261,0.9881022608393878
4.591795897948974,0.9844144171100692
4.605502751375687,0.9828669765979471
4.619209604802401,0.9801236478300549
4.632916458229114,0.9812312210196855
4.646623311655827,0.9782041221406087
4.660330165082541,0.9785694093376048
4.674037018509254,0.9805086216708663
4.687743871935967,0.9796232446833885
4.7014507253626805,0.9804950060645828
4.715157578789395,0.983437955650146
4.728864432216108,0.9858244496693762
4.742571285642821,0.9865441852896519
4.756278139069535,0.9888567306748575
4.769984992496248,0.9925764064238305
4.783691845922961,0.9953511180542406
4.7973986993496744,0.9971917515830365
4.811105552776388,1.0012769128276904
4.824812406203101,1.0050664785138899
4.838519259629814,1.007621080287575
4.852226113056528,1.010097529925683
4.865932966483241,1.0144749088755487
4.879639819909954,1.0160368360403496
4.8933466733366675,1.0182054397671365
4.907053526763381,1.019542576917639
4.920760380190095,1.0235036958094208
4.934467233616808,1.0240368630801184
4.948174087043522,1.0233612285816716
4.961880940470235,1.024046545064078
4.975587793896948,1.0239811952251878
4.9892946473236615,1.0220817540718408
5.003001500750375,1.021428039069233
5.016708354177088,1.0197716759082311
5.030415207603801,1.0172359252053764
5.044122061030515,1.0142960400452476
5.057828914457228,1.0112491309537242
5.071535767883941,1.0077978871291589
5.0852426213106545,1.0051255146956488
5.098949474737368,1.0009804107640137
5.112656328164081,0.997362716367099
5.126363181590795,0.9923887431708294
5.140070035017509,0.9897676992525549
5.153776888444222,0.9878092380944048
5.167483741870935,0.9836203194128734
5.1811905952976485,0.9798467746188996
5.194897448724362,0.9774489127247041
5.208604302151075,0.9752502894216308
5.222311155577788,0.9745984916192024
5.236018009004502,0.9733490380103289
5.249724862431215,0.9729042980714169
5.263431715857928,0.9719917233338861
5.2771385692846415,0.9751313572367779
5.290845422711355,0.9751561609011598
5.304552276138068,0.9776217544284996
5.318259129564782,0.9801860455175233
5.331965982991496,0.982434711669654
5.345672836418209,0.9871929309275089
5.359379689844922,0.9892294259680036
5.3730865432716355,0.9950687879391379
5.386793396698349,0.996288529798808
5.400500250125062,1.0018839746776167
5.414207103551775,1.0064513796214007
5.427913956978489,1.0106660977477075
5.441620810405202,1.0141840058584755
5.455327663831915,1.018838223549576
5.4690345172586285,1.0211050206758403
5.482741370685342,1.021581905434669
5.496448224112055,1.026724318040697
5.510155077538768,1.027954866860014
5.523861930965483,1.0286270031846785
5.537568784392196,1.0285917024287154
5.551275637818909,1.0291463361482993
5.5649824912456225,1.0277904445123114
5.578689344672336,1.0269926351866132
5.592396198099049,1.0241094858625042
5.606103051525762,1.022972847847081
5.619809904952476,1.01901193026449
5.633516758379189,1.0164741979245135
5.647223611805902,1.0117546578460812
5.660930465232616,1.0062322779608364
5.674637318659329,1.002966810707294
5.688344172086042,0.997739808804
5.7020510255127554,0.9934818147022872
5.71575787893947,0.9894172562426815
5.729464732366183,0.9841062897559952
5.743171585792896,0.9810121042496569
5.7568784392196095,0.9779954232858944
5.770585292646323,0.9749781993382254
5.784292146073036,0.972028663958638
5.797998999499749,0.9702788434225007
5.811705852926463,0.9674274245975538
5.825412706353176,0.967299692958794
5.839119559779889,0.9686379768117421
5.852826413206603,0.9689996344904479
5.866533266633316,0.971028365578014
5.880240120060029,0.9726017067602892
5.8939469734867425,0.975674607164899
5.907653826913456,0.9795401372545756
5.92136068034017,0.9833183115097447
5.935067533766883,0.9879641268069966
5.9487743871935965,0.9927677864667137
5.96248124062031,0.9975491451062797
5.976188094047023,1.0003497292191879
5.989894947473736,1.0059987130777774
6.00360180090045,1.0111846540810254
6.017308654327163,1.0166828029847255
6.031015507753876,1.0205904867227582
6.04472236118059,1.024719943064668
6.058429214607303,1.0277743666073842
6.072136068034016,1.030426627246899
6.0858429214607295,1.0327575315938027
6.099549774887443,1.0336335916860993
6.113256628314156,1.0348048148256312
6.12696348174087,1.0351424242534655
6.1406703351675835,1.0335079240904328
6.154377188594297,1.0323949008696391
6.16808404202101,1.02973501799888
6.181790895447723,1.0270071597670458
6.195497748874437,1.022889931290655
6.20920460230115,1.0184258655948861
6.222911455727863,1.0131065141422795
6.236618309154577,1.0089006977917618
6.25032516258129,1.0037422948815644
6.264032016008003,0.9971857418071297
6.2777388694347165,0.9928299421388279
6.29144572286143,0.9873413980268516
6.305152576288143,0.9830366865390445
6.318859429714857,0.9783073538055103
6.3325662831415706,0.9747315268366266
6.346273136568284,0.9713409547609423
6.359979989994997,0.9680978829092207
6.37368684342171,0.9650816572416525
6.387393696848424,0.9639659123709866
6.401100550275137,0.9633221982744844
6.41480740370185,0.9645407514606266
6.428514257128564,0.965074046085875
6.442221110555277,0.9670901898221619
6.45592796398199,0.9683720944845794
6.4696348174087035,0.9721642768050877
6.483341670835417,0.9759205111309142
6.49704852426213,0.9804504686794605
6.510755377688843,0.9852190058455147
6.524462231115558,0.9905477343473453
6.538169084542271,0.9965035512798582
6.551875937968984,1.0017680943802003
6.5655827913956974,1.0078397929721918
6.579289644822411,1.0128525357601004
6.592996498249124,1.0176281166758563
6.606703351675837,1.0219470440956786
6.620410205102551,1.0281699568330815
6.634117058529264,1.0298289633229674
6.647823911955977,1.034658799748087
6.6615307653826905,1.0366880133951575
6.675237618809404,1.038447832210696
6.688944472236117,1.0403722523200098
6.70265132566283,1.0391522246963367
6.716358179089544,1.0358715072359541
6.730065032516258,1.0350741446143399
6.743771885942971,1.0320445548921633
6.7574787393696845,1.0287762841191357
6.771185592796398,1.0245220587312893
6.784892446223111,1.0192582888448278
6.798599299649824,1.0168546969197674
6.812306153076538,1.0098936192340082
6.826013006503251,1.0047894415861318
6.839719859929964,0.9983402217326017
6.8534267133566775,0.9920707270837062
6.867133566783391,0.9868463801754357
6.880840420210104,0.9805534930778161
6.894547273636817,0.975943400068271
6.908254127063531,0.9721824106061412
6.921960980490245,0.9681200240287753
6.935667833916958,0.96491515235589
6.9493746873436715,0.962156085371992
6.963081540770385,0.9597876477591931
6.976788394197098,0.9598245252408507
6.990495247623811,0.9604994864925689
7.004202101050525,0.9617024573345552
7.017908954477238,0.9629112405609453
7.031615807903951,0.9667611692116886
7.0453226613306645,0.9709634520554365
7.059029514757378,0.9756638141054279
7.072736368184091,0.9802471848276734
7.086443221610804,0.9848415736025011
7.100150075037518,0.9910466107152424
7.113856928464231,0.9965247894340848
7.127563781890945,1.0029728998753369
7.1412706353176585,1.008894602773373
7.154977488744372,1.0137974663995073
7.168684342171085,1.0211576192245264
7.182391195597798,1.0249091296814015
7.196098049024512,1.0286216370106074
7.209804902451225,1.0329456935126
7.223511755877938,1.0374140695267788
7.2372186093046516,1.0383977953431807
7.250925462731365,1.0395525043109386
7.264632316158078,1.040509829000621
7.278339169584791,1.0404447401088652
7.292046023011505,1.040022863530397
7.305752876438218,1.0361912821067685
7.319459729864932,1.033797705806152
7.3331665832916455,1.030364736076881
7.346873436718359,1.0256984262511768
