time,flux
0.0,1.0497794640836322
0.013706853426713355,1.056934792822782
0.02741370685342671,1.059967755927434
0.041120560280140064,1.0677985991097643
0.05482741370685342,1.0695490796123865
0.06853426713356678,1.068705634904754
0.08224112056028013,1.0668061516970853
0.09594797398699349,1.0637914239663888
0.10965482741370684,1.0577781415232275
0.1233616808404202,1.0495781628346288
0.13706853426713356,1.0400175479092821
0.1507753876938469,1.0308195774604572
0.16448224112056026,1.0214792130467967
0.1781890945472736,1.0125276224650792
0.19189594797398699,1.0057321748533385
0.20560280140070034,0.9934256155411741
0.21930965482741369,0.9876892614951968
0.23301650825412704,0.982567797622815
0.2467233616808404,0.9808594093882753
0.26043021510755376,0.9795860442702304
0.2741370685342671,0.9809850804733622
0.28784392196098046,0.9815953808660091
0.3015507753876938,0.9868366897315648
0.31525762881440716,0.9936169592081862
0.3289644822411205,0.997385451614718
0.34267133566783387,1.0057486659718198
0.3563781890945472,1.0155386122227044
0.3700850425212606,1.0205778325454675
0.38379189594797397,1.0277974702883075
0.3974987493746873,1.0356875281670626
0.41120560280140067,1.0422798159665627
0.424912456228114,1.0456243282989124
0.43861930965482737,1.0456758097059984
0.4523261630815407,1.0488929623187402
0.46603301650825407,1.0490004944537537
0.4797398699349674,1.0481805089283722
0.4934467233616808,1.0453047564444848
0.5071535767883941,1.0422227790754686
0.5208604302151075,1.0361598463451334
0.5345672836418208,1.0303459184622583
0.5482741370685342,1.0237196028332207
0.5619809904952475,1.0199152186347296
0.5756878439219609,1.0103074916601773
0.5893946973486743,1.0033311758708408
0.6031015507753876,1.0009393346382043
0.616808404202101,0.9956130681329521
0.6305152576288143,0.9936035728445821
0.6442221110555277,0.9905467353332559
0.657928964482241,0.9898250918017438
0.6716358179089544,0.9881477309375901
0.6853426713356677,0.9924749511046269
0.6990495247623811,0.9922605206305468
0.7127563781890944,0.9955459233010716
0.7264632316158078,0.9988258832327027
0.7401700850425212,1.0027219202396818
0.7538769384692345,1.0075901586272622
0.7675837918959479,1.0095573573671335
0.7812906453226612,1.0134726809705885
0.7949974987493746,1.0155932818348217
0.8087043521760879,1.0169882491212001
0.8224112056028013,1.0170421721974952
0.8361180590295146,1.0181818829346096
0.849824912456228,1.0177209256758777
0.8635317658829413,1.021105684298105
0.8772386193096547,1.0162097763600022
0.8909454727363681,1.0166777225008492
0.9046523261630814,1.0142472864051046
0.9183591795897948,1.0132116643101416
0.9320660330165081,1.0092800846821293
0.9457728864432215,1.008519986140647
0.9594797398699348,1.0064205391680836
0.9731865932966483,1.006995076796552
0.9868934467233615,1.0061863558648705
1.000600300150075,1.0032402158540576
1.0143071535767882,1.004650008316601
1.0280140070035018,1.0019652925166773
1.041720860430215,1.0075288307404582
1.0554277138569284,1.0023307587379775
1.0691345672836416,1.0048373691159906
1.0828414207103552,1.0037140221514445
1.0965482741370685,1.0033427005046194
1.1102551275637818,1.0018521314115247
1.123961980990495,1.0013704505885272
1.1376688344172086,1.0009843022253508
1.1513756878439219,1.0000775596376257
1.1650825412706352,0.9977251984229761
1.1787893946973487,0.9942083910842068
1.192496248124062,0.9935533561724575
1.2062031015507753,0.9895270888883502
1.2199099549774886,0.9875978113918338
1.233616808404202,0.985361066896351
1.2473236618309154,0.9844862697546082
1.2610305152576287,0.9808636104328582
1.274737368684342,0.982022128852299
1.2884442221110555,0.9793873633817645
1.3021510755377688,0.9791637945477409
1.315857928964482,0.9832948911946179
1.3295647823911956,0.9856167421473595
1.3432716358179089,0.9886112600334721
1.3569784892446222,0.9911061513383508
1.3706853426713355,0.9958031932552179
1.384392196098049,1.000228428687101
1.3980990495247623,1.0036397258071417
1.4118059029514756,1.009951204726179
1.4255127563781889,1.013272245161204
1.4392196098049024,1.0141311882600386
1.4529264632316157,1.0156214595590858
1.466633316658329,1.0160341882060027
1.4803401700850425,1.0145421648453052
1.4940470235117558,1.012330209742524
1.507753876938469,1.0109368725570813
1.5214607303651824,1.004217067197112
1.5351675837918959,1.0030299102694678
1.5488744372186092,0.9952792888025735
1.5625812906453225,0.9855028335096409
1.5762881440720358,0.9849873748894314
1.5899949974987493,0.9745025127849165
1.6037018509254626,0.9688856773518735
1.6174087043521759,0.9609737588182343
1.6311155577788894,0.9532450319282756
1.6448224112056027,0.9530375913217164
1.658529264632316,0.949472605595995
1.6722361180590293,0.948779668112287
1.6859429714857428,0.9496593065849326
1.699649824912456,0.9514423637583783
1.7133566783391694,0.9584410030791686
1.7270635317658827,0.9637395546145103
1.7407703851925962,0.9682561630403679
1.7544772386193095,0.9764783824265905
1.7681840920460228,0.9846302402893878
1.7818909454727363,0.99558230265709
1.7955977988994496,0.9987523114277806
1.8093046523261629,1.00808839794953
1.8230115057528762,1.0136026983074427
1.8367183591795897,1.0224520629382718
1.850425212606303,1.0231996249802071
1.8641320660330163,1.025160087994397
1.8778389194597296,1.0221343431879037
1.891545772886443,1.0211369230046967
1.9052526263131564,1.016176515469665
1.9189594797398697,1.011881845993752
1.9326663331665832,1.003245800581078
1.9463731865932965,0.9927569234107739
1.9600800400200098,0.9845062410022204
1.973786893446723,0.9734016090067472
1.9874937468734366,0.9633694068433516
2.00120060030015,0.9548806700186394
2.014907453726863,0.9477455585310788
2.0286143071535765,0.9414774574789097
2.04232116058029,0.9339000955280596
2.0560280140070035,0.9306086035335048
2.069734867433717,0.9316851464331812
2.08344172086043,0.9303257949430849
2.0971485742871434,0.9341918486910741
2.1108554277138567,0.9406682897537073
2.12456228114057,0.9487982493757802
2.1382691345672833,0.9544293734408511
2.1519759879939966,0.9661141000648126
2.1656828414207103,0.97529955048298
2.1793896948474236,0.985974595717531
2.193096548274137,0.9971998348294333
2.20680340170085,1.0031932685703835
2.2205102551275635,1.0149755745250555
2.234217108554277,1.0201914398177794
2.24792396198099,1.0236654254287536
2.261630815407704,1.0264782336915206
2.275337668834417,1.0285992084885343
2.2890445222611304,1.0219135735004363
2.3027513756878437,1.0212529058618594
2.316458229114557,1.0138201672828602
2.3301650825412703,1.0066605304881429
2.3438719359679836,0.9956950129230624
2.3575787893946973,0.9882098780407272
2.3712856428214106,0.9755876791866402
2.384992496248124,0.9656900705078684
2.3986993496748372,0.9562862133348837
2.4124062031015505,0.9463897618356203
2.426113056528264,0.9384311735339315
2.439819909954977,0.9348864002097019
2.4535267633816904,0.9310750024489619
2.467233616808404,0.9316552915959153
2.4809404702351174,0.9313444931859609
2.4946473236618307,0.9343930535572893
2.508354177088544,0.9386194632569083
2.5220610305152573,0.9467573151400556
2.5357678839419706,0.9552466343013905
2.549474737368684,0.9652236677953725
2.5631815907953976,0.9744478678238798
2.576888444222111,0.9829610610795156
2.5905952976488242,0.9946870794953585
2.6043021510755375,1.0036755345965263
2.618009004502251,1.0081818159612674
2.631715857928964,1.0154391142933485
2.6454227113556774,1.0177969924256955
2.659129564782391,1.0231393083936788
2.6728364182091044,1.021755148838777
2.6865432716358177,1.019721663496656
2.700250125062531,1.019732342243345
2.7139569784892443,1.0123988055531332
2.7276638319159576,1.0054877360548313
2.741370685342671,0.9991725791193782
2.755077538769384,0.9907495868135662
2.768784392196098,0.9842295291785892
2.7824912456228112,0.9738290444569174
2.7961980990495245,0.9662427915661936
2.809904952476238,0.961896594500653
2.823611805902951,0.9552526926731756
2.8373186593296644,0.9510655315315314
2.8510255127563777,0.9494993174218989
2.8647323661830915,0.9485353833082817
2.8784392196098048,0.9480042778575796
2.892146073036518,0.954290990306012
2.9058529264632313,0.9548751115573296
2.9195597798899446,0.963536015694749
2.933266633316658,0.9669450050888966
2.9469734867433712,0.9727561245536532
2.960680340170085,0.9782333573604076
2.9743871935967983,0.9868564358784895
2.9880940470235116,0.9906856520295158
3.001800900450225,1.0008346169795759
3.015507753876938,1.0042017689901903
3.0292146073036514,1.0062648687955291
3.0429214607303647,1.0108671615896427
3.056628314157078,1.0121201075373771
3.0703351675837918,1.0136547685156783
3.084042021010505,1.012372700221564
3.0977488744372184,1.0106303265362735
3.1114557278639317,1.0073477194961666
3.125162581290645,1.005295457408907
3.1388694347173582,1.0023373926681698
3.1525762881440715,0.99949057598272
3.1662831415707853,0.995268283180979
3.1799899949974986,0.9891767497952512
3.193696848424212,0.9870558820914046
3.207403701850925,0.983063413784084
3.2211105552776385,0.9820395584048641
3.2348174087043517,0.9811660876641655
3.248524262131065,0.9801899382566567
3.262231115557779,0.9790824399671421
3.275937968984492,0.97974639330479
3.2896448224112054,0.9810309008504375
3.3033516758379187,0.9848150169048855
3.317058529264632,0.9864173422524606
3.3307653826913453,0.9889547554196265
3.3444722361180586,0.9906627247316299
3.358179089544772,0.9927557687793064
3.3718859429714856,0.992407272414923
3.385592796398199,0.9962792037231538
3.399299649824912,0.9967342486800574
3.4130065032516255,0.9976926451056293
3.4267133566783388,1.0012009127536003
3.440420210105052,1.0008909520126263
3.4541270635317654,0.9997078222389905
3.467833916958479,1.0003655685463502
3.4815407703851924,1.0008812747448763
3.4952476238119057,0.9994085443831853
3.508954477238619,1.0006121806013706
3.5226613306653323,1.0004543246579676
3.5363681840920456,0.9995042344327619
3.550075037518759,1.00277602830642
3.5637818909454726,1.0044457539984701
3.577488744372186,1.0043433018542647
3.591195597798899,1.0064262831409962
3.6049024512256125,1.0101190025234232
3.6186093046523258,1.0117435773974222
3.632316158079039,1.013293751099368
3.6460230115057524,1.014658644888862
3.659729864932466,1.0165326393759702
3.6734367183591794,1.0154034319333576
3.6871435717858927,1.0198310001845265
3.700850425212606,1.0159811911580197
3.7145572786393193,1.0177031409556325
3.7282641320660326,1.0146023241959414
3.741970985492746,1.0126550725599566
3.755677838919459,1.00955887532349
3.769384692346173,1.0054601345285608
3.783091545772886,1.002331858806019
3.7967983991995995,0.9999402633347193
3.810505252626313,0.9953826542970607
3.824212106053026,0.9919224988860973
3.8379189594797394,0.9887881856535353
3.8516258129064527,0.9871419324284867
3.8653326663331664,0.9858190335477794
3.8790395197598797,0.9886325808773325
3.892746373186593,0.9865107309369447
3.9064532266133063,0.9899014116844127
3.9201600800400196,0.9934414495393028
3.933866933466733,0.9995374741459115
3.947573786893446,1.0048437087336466
3.96128064032016,1.009982725717796
3.974987493746873,1.014722423180112
3.9886943471735865,1.0235593051681808
4.0024012006003,1.0326528736889362
4.016108054027013,1.0371502354765385
4.029814907453726,1.041508729031442
4.04352176088044,1.048313889612431
4.057228614307153,1.0509210465435896
4.070935467733866,1.049476331598651
4.08464232116058,1.0468489655277982
4.098349174587293,1.0483264344304466
4.112056028014007,1.0437769736322173
4.12576288144072,1.04017807762372
4.139469734867434,1.0317496467858394
4.153176588294147,1.0295879139304502
4.16688344172086,1.0186246451945435
4.1805902951475735,1.0117646666397264
4.194297148574287,1.002714899280221
4.208004002001,0.9958053179591299
4.221710855427713,0.9897531154268597
4.235417708854427,0.9841094939131776
4.24912456228114,0.9787532251457084
4.262831415707853,0.9739998239323526
4.276538269134567,0.9788520954710367
4.29024512256128,0.9803757352327693
4.303951975987993,0.9842536735182338
4.317658829414707,0.9874597067211787
4.331365682841421,0.997875016325987
4.345072536268134,1.0004385571876728
4.358779389694847,1.0140431708861306
4.3724862431215605,1.021780146850581
4.386193096548274,1.0308981833894955
4.399899949974987,1.0378553111233046
4.4136068034017,1.051346066661931
4.427313656828414,1.0578087194495434
4.441020510255127,1.0632591302395706
4.45472736368184,1.0690345468703224
4.468434217108554,1.0695429901999833
4.482141070535267,1.0696637268336857
4.49584792396198,1.0672004644499695
4.5095547773886935,1.0603897724433295
4.523261630815408,1.0569922160701604
4.536968484242121,1.0467591248848394
4.550675337668834,1.0380038914407324
4.5643821910955475,1.0269959494225722
4.578089044522261,1.0185208749658619
4.591795897948974,1.006452768718026
4.605502751375687,0.9972669132201585
4.619209604802401,0.9918129882256496
4.632916458229114,0.98185106348282
4.646623311655827,0.9762751359676206
4.660330165082541,0.9730727919014539
4.674037018509254,0.9730075810511456
4.687743871935967,0.9761489877702436
4.7014507253626805,0.9772153702934108
4.715157578789395,0.9817231021330838
4.728864432216108,0.9913669141851763
4.742571285642821,1.0005341997670167
4.756278139069535,1.0099260592307653
4.769984992496248,1.018434354546162
4.783691845922961,1.0310301707896579
4.7973986993496744,1.0405401815415263
4.811105552776388,1.0512550643082532
4.824812406203101,1.058174839397787
4.838519259629814,1.0628857115318597
4.852226113056528,1.0692800228095174
4.865932966483241,1.0699555839803128
4.879639819909954,1.0694856709832277
4.8933466733366675,1.0666040192918766
4.907053526763381,1.0621342367906959
4.920760380190095,1.053039890626524
4.934467233616808,1.0483586086441121
4.948174087043522,1.0385099827273356
4.961880940470235,1.0300132435551876
4.975587793896948,1.0215510678956217
4.9892946473236615,1.009891299250709
5.003001500750375,0.9986970353191804
5.016708354177088,0.9901387710750534
5.030415207603801,0.9851276873490258
5.044122061030515,0.9795851826597306
5.057828914457228,0.9748448363916874
5.071535767883941,0.9748475883426204
5.0852426213106545,0.9747716363160911
5.098949474737368,0.9770838126515057
5.112656328164081,0.9833627571899188
5.126363181590795,0.99074000001384
5.140070035017509,0.9953556781305207
5.153776888444222,1.0041350795111867
5.167483741870935,1.013537016706683
5.1811905952976485,1.0227441029085627
5.194897448724362,1.030971666418806
5.208604302151075,1.0383722336762782
5.222311155577788,1.040726444688517
5.236018009004502,1.0465367680789897
5.249724862431215,1.0504238087092428
5.263431715857928,1.0516444739332045
5.2771385692846415,1.0522068541089276
5.290845422711355,1.0494205434841761
5.304552276138068,1.0492625565414992
5.318259129564782,1.0419015011971777
5.331965982991496,1.0350949910394536
5.345672836418209,1.0296427458670188
5.359379689844922,1.0236654531975182
5.3730865432716355,1.011751066922145
5.386793396698349,1.009043107452959
5.400500250125062,0.9995079315040628
5.414207103551775,0.9939735130459414
5.427913956978489,0.9920222714598667
5.441620810405202,0.9878595087720267
5.455327663831915,0.9876327481294591
5.4690345172586285,0.9854969926184406
5.482741370685342,0.985906011320541
5.496448224112055,0.9850094274025359
5.510155077538768,0.9880676794829841
5.523861930965483,0.9927564641253654
5.537568784392196,0.993282152060566
5.551275637818909,1.0026395494516398
5.5649824912456225,1.0035394188658815
5.578689344672336,1.009812406252931
5.592396198099049,1.0087099723727344
5.606103051525762,1.0173064616630987
5.619809904952476,1.0157299112563007
5.633516758379189,1.0188638105534789
5.647223611805902,1.0194002601345526
5.660930465232616,1.0221712568928671
5.674637318659329,1.0193236484584574
5.688344172086042,1.0190079826624796
5.7020510255127554,1.017911349856768
5.71575787893947,1.0144098240108854
5.729464732366183,1.0119016049122542
5.743171585792896,1.0114949937463988
5.7568784392196095,1.0069019165364028
5.770585292646323,1.003535715252229
5.784292146073036,0.9992863174210797
5.797998999499749,1.0003505997650377
5.811705852926463,0.9995845107924523
5.825412706353176,0.9952957947367714
5.839119559779889,0.9979752213804313
5.852826413206603,0.9973470400522759
5.866533266633316,0.9935985832331776
5.880240120060029,0.9953826279698724
5.8939469734867425,0.9989129149408484
5.907653826913456,0.9963292267403798
5.92136068034017,0.9962219530712307
5.935067533766883,0.9973721153558189
5.9487743871935965,0.9954070306984294
5.96248124062031,0.9951402596726158
5.976188094047023,0.9925172059517757
5.989894947473736,0.9931452658278657
6.00360180090045,0.9924087587718879
6.017308654327163,0.9917329787548311
6.031015507753876,0.9896561949815198
6.04472236118059,0.985936771389884
6.058429214607303,0.9850495162256244
6.072136068034016,0.9824487576258923
6.0858429214607295,0.9837727022012889
6.099549774887443,0.982809128300733
6.113256628314156,0.9841849808643909
6.12696348174087,0.9848927754810934
6.1406703351675835,0.9830171964936529
6.154377188594297,0.9891086586275316
6.16808404202101,0.9922519692832257
6.181790895447723,0.9936955050412412
6.195497748874437,0.9968540038803743
6.20920460230115,1.0015378543627778
6.222911455727863,1.0026032593424479
6.236618309154577,1.0065000833348405
6.25032516258129,1.0076591371211367
6.264032016008003,1.009298827253876
6.2777388694347165,1.0090673097755338
6.29144572286143,1.0106224480105557
6.305152576288143,1.0066928821037073
6.318859429714857,1.006959569646436
6.3325662831415706,1.0010150464045422
6.346273136568284,0.9946842015653787
6.359979989994997,0.9905664255047982
6.37368684342171,0.9866596974922492
6.387393696848424,0.9780528071475284
6.401100550275137,0.9731924724493787
6.41480740370185,0.9655480878311418
6.428514257128564,0.9615668293175206
6.442221110555277,0.9544408158087013
6.45592796398199,0.9569071454358935
6.4696348174087035,0.9483563081952422
6.483341670835417,0.9514933983361387
6.49704852426213,0.9526930486362256
6.510755377688843,0.9546889600665447
6.524462231115558,0.9603319762856705
6.538169084542271,0.9656858460662487
6.551875937968984,0.9729534159457486
6.5655827913956974,0.9766857897109371
6.579289644822411,0.9863221945907932
6.592996498249124,0.9943757640929324
6.606703351675837,1.00070978538729
6.620410205102551,1.0080847152755656
6.634117058529264,1.0123033401027592
6.647823911955977,1.015592017245716
6.6615307653826905,1.021049251833913
6.675237618809404,1.0235160540728487
6.688944472236117,1.0201176973424464
6.70265132566283,1.0170183262999288
6.716358179089544,1.0148351188503295
6.730065032516258,1.0056494940390204
6.743771885942971,1.0007367869631947
6.7574787393696845,0.9921291125195073
6.771185592796398,0.9794825492120152
6.784892446223111,0.9695993183161122
6.798599299649824,0.963511721518664
6.812306153076538,0.9517326988063407
6.826013006503251,0.9465796884984545
6.839719859929964,0.9411913985003709
6.8534267133566775,0.9362546787929539
6.867133566783391,0.9299285857126406
6.880840420210104,0.9307104086764953
6.894547273636817,0.933351934032749
6.908254127063531,0.9340799373264049
6.921960980490245,0.9422112198630941
6.935667833916958,0.947992422042145
6.9493746873436715,0.958782023965742
6.963081540770385,0.9680214177423413
6.976788394197098,0.9784961206725415
6.990495247623811,0.986946853510945
7.004202101050525,0.9977794130064788
7.017908954477238,1.0080873003007649
7.031615807903951,1.0154162806645926
7.0453226613306645,1.0226498140539277
7.059029514757378,1.0255528601764885
7.072736368184091,1.0274908197978634
7.086443221610804,1.0263659605223054
7.100150075037518,1.0229767625546042
7.113856928464231,1.0186579563551865
7.127563781890945,1.0134935344548652
7.1412706353176585,1.004155251875421
7.154977488744372,0.9948912736959662
7.168684342171085,0.9843520073408216
7.182391195597798,0.9732262207017254
7.196098049024512,0.9644764727921242
7.209804902451225,0.9551775103092217
7.223511755877938,0.9461643649894201
7.2372186093046516,0.9359172354554405
7.250925462731365,0.9349782700293079
7.264632316158078,0.9302383177978373
7.278339169584791,0.9288769729168292
7.292046023011505,0.9306350456502493
7.305752876438218,0.9345756828842937
7.319459729864932,0.9391545473747779
7.3331665832916455,0.9476704298680146
7.346873436718359,0.9585777116820454
