time,flux
0.0,1.0028646694288956
0.013706853426713355,1.0072850385330419
0.02741370685342671,1.009943090276239
0.041120560280140064,1.014994465480489
0.05482741370685342,1.017777396898929
0.06853426713356678,1.0202723150582425
0.08224112056028013,1.0213416157785231
0.09594797398699349,1.0222416787363862
0.10965482741370684,1.0212250018179592
0.1233616808404202,1.0208752272451747
0.13706853426713356,1.0187766977742574
0.1507753876938469,1.0140141755017744
0.16448224112056026,1.009321034279592
0.1781890945472736,1.0031351995059576
0.19189594797398699,0.9966287542864547
0.20560280140070034,0.9907514279567197
0.21930965482741369,0.9844427684679052
0.23301650825412704,0.9792784906566182
0.2467233616808404,0.9752961227778464
0.26043021510755376,0.9712983677572729
0.2741370685342671,0.9688517703017839
0.28784392196098046,0.9682487177075593
0.3015507753876938,0.9689063959805218
0.31525762881440716,0.9707489833359857
0.3289644822411205,0.9757958068840819
0.34267133566783387,0.9801410570497039
0.3563781890945472,0.986928409372892
0.3700850425212606,0.9945263289240145
0.38379189594797397,1.0037369763809019
0.3974987493746873,1.0103303631806075
0.41120560280140067,1.0181543416085268
0.424912456228114,1.0265549047138733
0.43861930965482737,1.0315836905299232
0.4523261630815407,1.0360994007780584
0.46603301650825407,1.0402610978929856
0.4797398699349674,1.0414187793414513
0.4934467233616808,1.0428830818360473
0.5071535767883941,1.0412012802673152
0.5208604302151075,1.0373350680210378
0.5345672836418208,1.0323304283223513
0.5482741370685342,1.0250897232459673
0.5619809904952475,1.0172483567260984
0.5756878439219609,1.0087040070563953
0.5893946973486743,1.0006233461817597
0.6031015507753876,0.9904896613108942
0.616808404202101,0.9814576337082185
0.6305152576288143,0.9740285607714201
0.6442221110555277,0.9663887039772603
0.657928964482241,0.9592267884092287
0.6716358179089544,0.9556818945977839
0.6853426713356677,0.9521922900034917
0.6990495247623811,0.9508505815430132
0.7127563781890944,0.9513883574432105
0.7264632316158078,0.9524830085358286
0.7401700850425212,0.9544644237455068
0.7538769384692345,0.9592473444956852
0.7675837918959479,0.9631175947723318
0.7812906453226612,0.969173843323213
0.7949974987493746,0.9752329019192126
0.8087043521760879,0.9800307114823898
0.8224112056028013,0.9857377205159105
0.8361180590295146,0.9897757695359414
0.849824912456228,0.9946752265968586
0.8635317658829413,0.9955061893538127
0.8772386193096547,0.9978999659825307
0.8909454727363681,0.998890581597533
0.9046523261630814,0.9958792384409919
0.9183591795897948,0.9940197854997961
0.9320660330165081,0.9912521803557942
0.9457728864432215,0.9884121711175923
0.9594797398699348,0.9837423111990161
0.9731865932966483,0.9809634557272966
0.9868934467233615,0.9776801131291607
1.000600300150075,0.9739126895466271
1.0143071535767882,0.9716371530372034
1.0280140070035018,0.9718403364140429
1.041720860430215,0.9698804324370393
1.0554277138569284,0.9725153112501846
1.0691345672836416,0.9751150842595258
1.0828414207103552,0.9800749439340108
1.0965482741370685,0.9849156840579246
1.1102551275637818,0.9925357614920917
1.123961980990495,0.9980141540334823
1.1376688344172086,1.0060658528831141
1.1513756878439219,1.0135520057870417
1.1650825412706352,1.0211146014648
1.1787893946973487,1.0282032461464563
1.192496248124062,1.0331169823351625
1.2062031015507753,1.0377388564934515
1.2199099549774886,1.0400188319376684
1.233616808404202,1.0426873610550949
1.2473236618309154,1.04223371060622
1.2610305152576287,1.040785262291485
1.274737368684342,1.0347261960440328
1.2884442221110555,1.030583911788187
1.3021510755377688,1.0246779366823608
1.315857928964482,1.0170235685044893
1.3295647823911956,1.0089598201222736
1.3432716358179089,0.9990031701503213
1.3569784892446222,0.992351896167545
1.3706853426713355,0.9822793005850665
1.384392196098049,0.9758790960366588
1.3980990495247623,0.9705554365982543
1.4118059029514756,0.9662847944790831
1.4255127563781889,0.9623417971165333
1.4392196098049024,0.9602795107106877
1.4529264632316157,0.9617023776052313
1.466633316658329,0.9645286558717374
1.4803401700850425,0.9680466658975491
1.4940470235117558,0.9738542707625747
1.507753876938469,0.9813279834897102
1.5214607303651824,0.9889413212246116
1.5351675837918959,0.9957743464154903
1.5488744372186092,1.004497798671163
1.5625812906453225,1.011305392245006
1.5762881440720358,1.0203268437238453
1.5899949974987493,1.026360247301355
1.6037018509254626,1.0322968653910518
1.6174087043521759,1.035770826195807
1.6311155577788894,1.039301511777526
1.6448224112056027,1.0403106879192021
1.658529264632316,1.0413598816425138
1.6722361180590293,1.0391905097824494
1.6859429714857428,1.0366359498375528
1.699649824912456,1.0323622932620629
1.7133566783391694,1.0284291831340153
1.7270635317658827,1.0228615061792872
1.7407703851925962,1.0185334073359913
1.7544772386193095,1.013508598708648
1.7681840920460228,1.0119799783783932
1.7818909454727363,1.0074025064075198
1.7955977988994496,1.005678539603286
1.8093046523261629,1.0036404710340665
1.8230115057528762,1.0053506162760457
1.8367183591795897,1.0042233987998168
1.850425212606303,1.0087741117685303
1.8641320660330163,1.0114299220700578
1.8778389194597296,1.0157838486153379
1.891545772886443,1.0195726215823973
1.9052526263131564,1.0244015787072163
1.9189594797398697,1.0281236935614477
1.9326663331665832,1.0332592051278593
1.9463731865932965,1.0345117122859586
1.9600800400200098,1.0372381056526514
1.973786893446723,1.0395291006257903
1.9874937468734366,1.0389700258137626
2.00120060030015,1.037008753879104
2.014907453726863,1.032497667518315
2.0286143071535765,1.0262167585122697
2.04232116058029,1.021218839491843
2.0560280140070035,1.0134053669238225
2.069734867433717,1.0048603038766954
2.08344172086043,0.9970612733522964
2.0971485742871434,0.9877789771569304
2.1108554277138567,0.9813247188881247
2.12456228114057,0.9708413085251186
2.1382691345672833,0.9647964172746056
2.1519759879939966,0.9587888930434973
2.1656828414207103,0.9544420252560841
2.1793896948474236,0.9514100674588533
2.193096548274137,0.9515325064097783
2.20680340170085,0.9522311680149365
2.2205102551275635,0.9555876168526075
2.234217108554277,0.9586418774530095
2.24792396198099,0.966056394530054
2.261630815407704,0.9732498194171821
2.275337668834417,0.980941857292879
2.2890445222611304,0.9887578749374154
2.3027513756878437,0.997237533415905
2.316458229114557,1.0057112870018556
2.3301650825412703,1.0139020625096071
2.3438719359679836,1.0197946476098485
2.3575787893946973,1.0270761400064106
2.3712856428214106,1.029022424530743
2.384992496248124,1.0291980876531588
2.3986993496748372,1.0312125332836937
2.4124062031015505,1.028171638429838
2.426113056528264,1.0275736273491582
2.439819909954977,1.0222104613640541
2.4535267633816904,1.018341355642848
2.467233616808404,1.0116311837151701
2.4809404702351174,1.0049446282609025
2.4946473236618307,0.9979716752625193
2.508354177088544,0.9916459273440476
2.5220610305152573,0.9843647817003112
2.5357678839419706,0.9789522139104081
2.549474737368684,0.9756002618509834
2.5631815907953976,0.9721888696655939
2.576888444222111,0.9709033428183874
2.5905952976488242,0.9686501943779683
2.6043021510755375,0.9709723821076724
2.618009004502251,0.9714544755180322
2.631715857928964,0.9746815771081809
2.6454227113556774,0.9784965804035731
2.659129564782391,0.9817312822810121
2.6728364182091044,0.9866250716609154
2.6865432716358177,0.9899816663110391
2.700250125062531,0.9937346848634157
2.7139569784892443,0.997053094936224
2.7276638319159576,0.9987543300896817
2.741370685342671,0.9993023439449797
2.755077538769384,0.9998302083344521
2.768784392196098,0.9984010163132434
2.7824912456228112,0.9969711961277359
2.7961980990495245,0.993331480299596
2.809904952476238,0.9878391892641735
2.823611805902951,0.9831458761761683
2.8373186593296644,0.9773338947675668
2.8510255127563777,0.9724480809931151
2.8647323661830915,0.9657369745179981
2.8784392196098048,0.9621604999972685
2.892146073036518,0.9565368771384323
2.9058529264632313,0.9555213538917828
2.9195597798899446,0.9532674814570743
2.933266633316658,0.9546007476381475
2.9469734867433712,0.9565488245898442
2.960680340170085,0.9581446985974906
2.9743871935967983,0.96451882933067
2.9880940470235116,0.9715276361003808
3.001800900450225,0.9785699508520079
3.015507753876938,0.9886785819930133
3.0292146073036514,0.9978420377882217
3.0429214607303647,1.007542509884833
3.056628314157078,1.0175062974149982
3.0703351675837918,1.0258535162541353
3.084042021010505,1.0339737370404267
3.0977488744372184,1.0407909692537722
3.1114557278639317,1.0452367442263752
3.125162581290645,1.0498805521614656
3.1388694347173582,1.0532723610310166
3.1525762881440715,1.0508269982634668
3.1662831415707853,1.0493219720177631
3.1799899949974986,1.045638685853677
3.193696848424212,1.0427308869882481
3.207403701850925,1.0355695292260674
3.2211105552776385,1.0282507153829554
3.2348174087043517,1.0206941098164526
3.248524262131065,1.0131144876782836
3.262231115557779,1.0051346312211473
3.275937968984492,0.9979666437070921
3.2896448224112054,0.9909383067957245
3.3033516758379187,0.9870705043215408
3.317058529264632,0.9824712705609254
3.3307653826913453,0.9799148600605425
3.3444722361180586,0.9797568686095751
3.358179089544772,0.9796717845711014
3.3718859429714856,0.9827771738228472
3.385592796398199,0.9834802765807125
3.399299649824912,0.9899884520985098
3.4130065032516255,0.9946282849014543
3.4267133566783388,1.0006082947649497
3.440420210105052,1.0058728980835123
3.4541270635317654,1.0121477724173595
3.467833916958479,1.0152055104965354
3.4815407703851924,1.0184690288185152
3.4952476238119057,1.0224446562313214
3.508954477238619,1.0241122211194813
3.5226613306653323,1.0239133720712492
3.5363681840920456,1.0240677170638337
3.550075037518759,1.022148681014658
3.5637818909454726,1.021346196052871
3.577488744372186,1.0175449423324945
3.591195597798899,1.0110916996089743
3.6049024512256125,1.008418980939399
3.6186093046523258,1.0044795068840702
3.632316158079039,1.0004438216196458
3.6460230115057524,0.996552608144301
3.659729864932466,0.9916799546813753
3.6734367183591794,0.9911113549187361
3.6871435717858927,0.9891069561415375
3.700850425212606,0.9913734403534088
3.7145572786393193,0.9929098092012048
3.7282641320660326,0.9976719478989551
3.741970985492746,1.0017079497998616
3.755677838919459,1.0075969984459892
3.769384692346173,1.0135619155593403
3.783091545772886,1.0215014849516255
3.7967983991995995,1.027327900227047
3.810505252626313,1.0337797788416931
3.824212106053026,1.041091926849954
3.8379189594797394,1.0453185500835889
3.8516258129064527,1.0491455698962509
3.8653326663331664,1.0506170704711886
3.8790395197598797,1.0515527740024184
3.892746373186593,1.050241211079838
3.9064532266133063,1.0474119101614954
3.9201600800400196,1.0427326412580815
3.933866933466733,1.035270243166121
3.947573786893446,1.0283267723756908
3.96128064032016,1.0193618287527062
3.974987493746873,1.010569590702861
3.9886943471735865,1.0004446967453102
4.0024012006003,0.9902120287174596
4.016108054027013,0.9812394810948274
4.029814907453726,0.9709005785032492
4.04352176088044,0.9638807230523733
4.057228614307153,0.9584754898467325
4.070935467733866,0.9523921431155554
4.08464232116058,0.9519532915621399
4.098349174587293,0.9502022446998413
4.112056028014007,0.9496575844838173
4.12576288144072,0.9513750006385915
4.139469734867434,0.9558405483556371
4.153176588294147,0.9618871870153363
4.16688344172086,0.9671793829220524
4.1805902951475735,0.974584367739548
4.194297148574287,0.9809817880290879
4.208004002001,0.9876997697233366
4.221710855427713,0.9941396135164763
4.235417708854427,0.9983500808701605
4.24912456228114,1.0032889554268953
4.262831415707853,1.006558863963985
4.276538269134567,1.0082526004460406
4.29024512256128,1.0089478636016622
4.303951975987993,1.0080747583795053
4.317658829414707,1.007246150189457
4.331365682841421,1.0049408009568752
4.345072536268134,0.9999784044326712
4.358779389694847,0.9966893623638372
4.3724862431215605,0.9910746561719431
4.386193096548274,0.9867659608745546
4.399899949974987,0.9838948095917275
4.4136068034017,0.9793845155629207
4.427313656828414,0.9763104364051586
4.441020510255127,0.9744280942277823
4.45472736368184,0.9751974539374161
4.468434217108554,0.9750560058717738
4.482141070535267,0.9774738280806841
4.49584792396198,0.9797603017260171
4.5095547773886935,0.98483506552284
4.523261630815408,0.9894971900907394
4.536968484242121,0.9948656493548923
4.550675337668834,1.0015450420857939
4.5643821910955475,1.004445190629026
4.578089044522261,1.0112232449859337
4.591795897948974,1.0149914446039559
4.605502751375687,1.019183804150144
4.619209604802401,1.0204222958520068
4.632916458229114,1.0202291316571903
4.646623311655827,1.020141006934823
4.660330165082541,1.0170971613986162
4.674037018509254,1.013089960356704
4.687743871935967,1.0078991505062964
4.7014507253626805,1.001348543112891
4.715157578789395,0.9935127423049513
4.728864432216108,0.9852335168862291
4.742571285642821,0.9783359687945128
4.756278139069535,0.9702423865501908
4.769984992496248,0.9630567266313385
4.783691845922961,0.9572176271865581
4.7973986993496744,0.952372618829059
4.811105552776388,0.9486521283348477
4.824812406203101,0.9477593784987213
4.838519259629814,0.9466506379620074
4.852226113056528,0.9493546909339644
4.865932966483241,0.9539500327789825
4.879639819909954,0.9589780773767058
4.8933466733366675,0.9646160794150411
4.907053526763381,0.9730376841597932
4.920760380190095,0.9829662712675643
4.934467233616808,0.992108544904752
4.948174087043522,1.0030430796384484
4.961880940470235,1.011774135703495
4.975587793896948,1.0205351928378155
4.9892946473236615,1.0285559311554633
5.003001500750375,1.0343586343749915
5.016708354177088,1.039062656103816
5.030415207603801,1.0442201561683349
5.044122061030515,1.0452139464098198
5.057828914457228,1.045301878885528
5.071535767883941,1.0436593573362831
5.0852426213106545,1.0403589759002234
5.098949474737368,1.0374918440610337
5.112656328164081,1.0327826984711626
5.126363181590795,1.0276462856840578
5.140070035017509,1.0210574727757147
5.153776888444222,1.0159153104643506
5.167483741870935,1.0101002167184885
5.1811905952976485,1.0067111385626544
5.194897448724362,1.0027962498718328
5.208604302151075,1.0013921911663306
5.222311155577788,1.0009130739945578
5.236018009004502,1.0004350741779666
5.249724862431215,1.0003362581088258
5.263431715857928,1.0029789554490964
5.2771385692846415,1.0076498601537285
5.290845422711355,1.009963223087655
5.304552276138068,1.014739637959481
5.318259129564782,1.019176171413348
5.331965982991496,1.0219916978207613
5.345672836418209,1.0274951298786166
5.359379689844922,1.0295414550614412
5.3730865432716355,1.0319161703834783
5.386793396698349,1.031129107128049
5.400500250125062,1.0315658808529358
5.414207103551775,1.028019201023313
5.427913956978489,1.0247421201279396
5.441620810405202,1.0209992726431476
5.455327663831915,1.014859096981195
5.4690345172586285,1.007985712827971
5.482741370685342,1.0018206760843873
5.496448224112055,0.994767643814415
5.510155077538768,0.98796918983164
5.523861930965483,0.9811134507151718
5.537568784392196,0.9770205183643987
5.551275637818909,0.9731357655320442
5.5649824912456225,0.9700519331349295
5.578689344672336,0.9705204664538059
5.592396198099049,0.9684661852630331
5.606103051525762,0.9727659362502584
5.619809904952476,0.9767568931728337
5.633516758379189,0.9808922410108749
5.647223611805902,0.9890366986667721
5.660930465232616,0.9955186811224661
5.674637318659329,1.0040326137237316
5.688344172086042,1.011997277440047
5.7020510255127554,1.0206723450919968
5.71575787893947,1.0292708071739383
5.729464732366183,1.0352492862810516
5.743171585792896,1.0410473975801242
5.7568784392196095,1.0472652281481734
5.770585292646323,1.050401805057118
5.784292146073036,1.0493090103070213
5.797998999499749,1.0491695169835316
5.811705852926463,1.0465884941511934
5.825412706353176,1.041814665649489
5.839119559779889,1.0354689852541894
5.852826413206603,1.0290830338873684
5.866533266633316,1.0213109440467993
5.880240120060029,1.0133767657174961
5.8939469734867425,1.004249696767998
5.907653826913456,0.9950916491636721
5.92136068034017,0.9872526643065739
5.935067533766883,0.979821663792041
5.9487743871935965,0.9738476872426838
5.96248124062031,0.9690446902208463
5.976188094047023,0.9661105618150495
5.989894947473736,0.9635823132734868
6.00360180090045,0.9619717521426366
6.017308654327163,0.9641624610327435
6.031015507753876,0.966023427475827
6.04472236118059,0.97054754397525
6.058429214607303,0.9729634651579697
6.072136068034016,0.9772667343661873
6.0858429214607295,0.9815622552037429
6.099549774887443,0.9862705774702645
6.113256628314156,0.98919088316995
6.12696348174087,0.9921051832331264
6.1406703351675835,0.9942389766957703
6.154377188594297,0.9966928606500236
6.16808404202101,0.9967049389448194
6.181790895447723,0.9948851159266365
6.195497748874437,0.9918839190888318
6.20920460230115,0.9886936909271186
6.222911455727863,0.9843639591934338
6.236618309154577,0.9807989894863832
6.25032516258129,0.9762678112675124
6.264032016008003,0.9711378885014315
6.2777388694347165,0.9660595015284529
6.29144572286143,0.9621425384256653
6.305152576288143,0.9593512075822428
6.318859429714857,0.9596791294690719
6.3325662831415706,0.958401353173947
6.346273136568284,0.9602086888832972
6.359979989994997,0.963164887362349
6.37368684342171,0.9668159363420412
6.387393696848424,0.9735010938549211
6.401100550275137,0.9809333116066946
6.41480740370185,0.9886991823767521
6.428514257128564,0.9973003151787675
6.442221110555277,1.0054349560538316
6.45592796398199,1.0120077261735487
6.4696348174087035,1.0202499033809438
6.483341670835417,1.0270424669995797
6.49704852426213,1.0323275575480655
6.510755377688843,1.0365434252298946
6.524462231115558,1.0374938274449632
6.538169084542271,1.038526813812718
6.551875937968984,1.0375033384526084
6.5655827913956974,1.0343160836322547
6.579289644822411,1.0277853051506918
6.592996498249124,1.0238280480140216
6.606703351675837,1.0164692387717589
6.620410205102551,1.0073639465701432
6.634117058529264,0.9988702183113858
6.647823911955977,0.9912634501531637
6.6615307653826905,0.9820279049329368
6.675237618809404,0.9739240990149904
6.688944472236117,0.9676226646777809
6.70265132566283,0.9623974408569667
6.716358179089544,0.9602669844468099
6.730065032516258,0.9581415468210316
6.743771885942971,0.9581449722072221
6.7574787393696845,0.9591571031335763
6.771185592796398,0.9629881321011972
6.784892446223111,0.9670020585958772
6.798599299649824,0.973605158727702
6.812306153076538,0.9796958699978806
6.826013006503251,0.9867474869506416
6.839719859929964,0.9937143454515194
6.8534267133566775,1.0005853992551206
6.867133566783391,1.006871122150148
6.880840420210104,1.0145452861035074
6.894547273636817,1.0203384312257617
6.908254127063531,1.024206538029752
6.921960980490245,1.0277799600169821
6.935667833916958,1.028831265407537
6.9493746873436715,1.0293916298674568
6.963081540770385,1.028114570986056
6.976788394197098,1.0246930700466133
6.990495247623811,1.0220840551863388
7.004202101050525,1.0182330716953214
7.017908954477238,1.0139347430241363
7.031615807903951,1.0109833382917746
7.0453226613306645,1.007228578393329
7.059029514757378,1.004781811444765
7.072736368184091,1.0025548064795493
7.086443221610804,1.001625715139021
7.100150075037518,1.0006771321515582
7.113856928464231,1.003066908181908
7.127563781890945,1.0060351232772227
7.1412706353176585,1.0108244911593665
7.154977488744372,1.015323311859284
7.168684342171085,1.0189996780503248
7.182391195597798,1.0270832446452982
7.196098049024512,1.03071612624255
7.209804902451225,1.037244784559382
7.223511755877938,1.041936702039977
7.2372186093046516,1.0452584152001216
7.250925462731365,1.0485171343590731
7.264632316158078,1.0513498549974298
7.278339169584791,1.0508902100914517
7.292046023011505,1.049565052349685
7.305752876438218,1.0461437799719155
7.319459729864932,1.0412282817078464
7.3331665832916455,1.0352885414364505
7.346873436718359,1.0280622676167945
