time,flux
0.0,0.9740081486959642
0.013706853426713355,0.9711124672332407
0.02741370685342671,0.9665158705331024
0.041120560280140064,0.9628962706348132
0.05482741370685342,0.9602444959360638
0.06853426713356678,0.9584513146275069
0.08224112056028013,0.9562371221263902
0.09594797398699349,0.9543538767942752
0.10965482741370684,0.9522375270807173
0.1233616808404202,0.9525244966611951
0.13706853426713356,0.9515247598992173
0.1507753876938469,0.9526589684613957
0.16448224112056026,0.9519962314928864
0.1781890945472736,0.952901935831133
0.19189594797398699,0.9534047544771856
0.20560280140070034,0.954651979747312
0.21930965482741369,0.9565126043584465
0.23301650825412704,0.9596156853782949
0.2467233616808404,0.9627031196700846
0.26043021510755376,0.9640530006182066
0.2741370685342671,0.9678115516950837
0.28784392196098046,0.9704565072303973
0.3015507753876938,0.9748585980004318
0.31525762881440716,0.9781319859452139
0.3289644822411205,0.9814800851302609
0.34267133566783387,0.9838497481497381
0.3563781890945472,0.988386504236876
0.3700850425212606,0.9907254759946371
0.38379189594797397,0.9927927898227247
0.3974987493746873,0.9960044789127205
0.41120560280140067,0.9980311351544316
0.424912456228114,1.0013481206479768
0.43861930965482737,1.0015158197409328
0.4523261630815407,1.0045899727755132
0.46603301650825407,1.004605373523731
0.4797398699349674,1.0057978735716142
0.4934467233616808,1.0071071397599614
0.5071535767883941,1.0066485496244693
0.5208604302151075,1.0074269916645315
0.5345672836418208,1.0072571708013909
0.5482741370685342,1.0056179325950438
0.5619809904952475,1.0049404191500917
0.5756878439219609,1.003914623391445
0.5893946973486743,1.0022378093011186
0.6031015507753876,1.00061087058637
0.616808404202101,0.9981493378538896
0.6305152576288143,0.9963738449159937
0.6442221110555277,0.9922983061620585
0.657928964482241,0.9923115561493857
0.6716358179089544,0.9879256345481818
0.6853426713356677,0.9870472423370805
0.6990495247623811,0.9856179450207099
0.7127563781890944,0.9832372864875599
0.7264632316158078,0.9824158658408845
0.7401700850425212,0.9810140523233304
0.7538769384692345,0.977575419134704
0.7675837918959479,0.978842006815095
0.7812906453226612,0.9774054417217076
0.7949974987493746,0.9772111537586818
0.8087043521760879,0.9773254512889732
0.8224112056028013,0.9787556222343552
0.8361180590295146,0.9799636671013641
0.849824912456228,0.9800039415732864
0.8635317658829413,0.9819066764470898
0.8772386193096547,0.9831065221090115
0.8909454727363681,0.9856003756674352
0.9046523261630814,0.9889873159892302
0.9183591795897948,0.9930564329226438
0.9320660330165081,0.9962964293711044
0.9457728864432215,0.9986691843563373
0.9594797398699348,1.0034508125634336
0.9731865932966483,1.008033141236076
0.9868934467233615,1.0098828268426574
1.000600300150075,1.0155392203588534
1.0143071535767882,1.0197438717532712
1.0280140070035018,1.022780383471134
1.041720860430215,1.0273885588072105
1.0554277138569284,1.0306923977952767
1.0691345672836416,1.0351715312856276
1.0828414207103552,1.0377900025181674
1.0965482741370685,1.0410566358519975
1.1102551275637818,1.0428751150830642
1.123961980990495,1.046725291100738
1.1376688344172086,1.049049274707016
1.1513756878439219,1.0518436219469525
1.1650825412706352,1.0528919494671207
1.1787893946973487,1.0537525550735543
1.192496248124062,1.0547512433070372
1.2062031015507753,1.054385595186031
1.2199099549774886,1.0532270139897968
1.233616808404202,1.0526146542903532
1.2473236618309154,1.051407628988297
1.2610305152576287,1.049763663323394
1.274737368684342,1.0470174068961253
1.2884442221110555,1.0452100714502903
1.3021510755377688,1.0407237824871072
1.315857928964482,1.0395988175467443
1.3295647823911956,1.0348451021021523
1.3432716358179089,1.032087630387919
1.3569784892446222,1.0271814815396658
1.3706853426713355,1.0235693895281002
1.384392196098049,1.019326368368529
1.3980990495247623,1.0159335147307598
1.4118059029514756,1.0118794216271525
1.4255127563781889,1.0082714042328713
1.4392196098049024,1.003567804488352
1.4529264632316157,0.9992539089877372
1.466633316658329,0.9970824036883411
1.4803401700850425,0.9937364378039492
1.4940470235117558,0.9902997152896456
1.507753876938469,0.9858798801139806
1.5214607303651824,0.9840193521869054
1.5351675837918959,0.9826916031730349
1.5488744372186092,0.9811349945972714
1.5625812906453225,0.9796688168941793
1.5762881440720358,0.9790257219285525
1.5899949974987493,0.9790423343170677
1.6037018509254626,0.9783840098759996
1.6174087043521759,0.9791803283269221
1.6311155577788894,0.9784558292673169
1.6448224112056027,0.9801102370834179
1.658529264632316,0.9811277362938432
1.6722361180590293,0.9829434044351091
1.6859429714857428,0.9854250226781932
1.699649824912456,0.9862174662580668
1.7133566783391694,0.9893643233308617
1.7270635317658827,0.9908661553237252
1.7407703851925962,0.9938324589194807
1.7544772386193095,0.9955979315233459
1.7681840920460228,0.9979522345178478
1.7818909454727363,0.9988740653437275
1.7955977988994496,1.000801651434755
1.8093046523261629,1.0031019824264926
1.8230115057528762,1.0042674297722254
1.8367183591795897,1.0059857816952806
1.850425212606303,1.0070578477918701
1.8641320660330163,1.007845596357848
1.8778389194597296,1.0079047857045915
1.891545772886443,1.0073370481517736
1.9052526263131564,1.0071952160280426
1.9189594797398697,1.007081647411029
1.9326663331665832,1.0066616673904507
1.9463731865932965,1.0052518458866622
1.9600800400200098,1.003445454938491
1.973786893446723,1.0010530487470346
1.9874937468734366,0.9982640411078965
2.00120060030015,0.9966577048801579
2.014907453726863,0.9945473130446219
2.0286143071535765,0.9909271088186228
2.04232116058029,0.9873798604634536
2.0560280140070035,0.9848623497604
2.069734867433717,0.9807492538290862
2.08344172086043,0.9771299483535139
2.0971485742871434,0.9736484554256595
2.1108554277138567,0.9712011742639199
2.12456228114057,0.9674598339407742
2.1382691345672833,0.9643548904908894
2.1519759879939966,0.9620696847275717
2.1656828414207103,0.9598467833228111
2.1793896948474236,0.9568934054088873
2.193096548274137,0.9532731211589321
2.20680340170085,0.9524361428566699
2.2205102551275635,0.951060341732933
2.234217108554277,0.9521616770486403
2.24792396198099,0.9506373866311247
2.261630815407704,0.9500118814964579
2.275337668834417,0.9497532447510966
2.2890445222611304,0.9519056273812921
2.3027513756878437,0.9539239389640074
2.316458229114557,0.9556896156264841
2.3301650825412703,0.9562990034933547
2.3438719359679836,0.9608772115043428
2.3575787893946973,0.96258787958598
2.3712856428214106,0.9663732360417255
2.384992496248124,0.9697995218594825
2.3986993496748372,0.9742287112955753
2.4124062031015505,0.9791038215051019
2.426113056528264,0.9822226829806727
2.439819909954977,0.9856475017252313
2.4535267633816904,0.992022416232729
2.467233616808404,0.996363008150812
2.4809404702351174,1.0002160536288958
2.4946473236618307,1.0053499834137187
2.508354177088544,1.0089480006643015
2.5220610305152573,1.0128620068366876
2.5357678839419706,1.0176483854219163
2.549474737368684,1.0208407259867367
2.5631815907953976,1.0249121704197104
2.576888444222111,1.0279274252010193
2.5905952976488242,1.0308860755095481
2.6043021510755375,1.0315710412039887
2.618009004502251,1.034357696690986
2.631715857928964,1.036424681095211
2.6454227113556774,1.0378305383445996
2.659129564782391,1.0379173739159617
2.6728364182091044,1.0383308267574394
2.6865432716358177,1.0378409905298946
2.700250125062531,1.0374956603273016
2.7139569784892443,1.0370366204058044
2.7276638319159576,1.0359283277578526
2.741370685342671,1.0323382113509285
2.755077538769384,1.0320769103387466
2.768784392196098,1.029772448144875
2.7824912456228112,1.026123692606939
2.7961980990495245,1.024157210285928
2.809904952476238,1.0227173946879315
2.823611805902951,1.0188104119300783
2.8373186593296644,1.0168728030931287
2.8510255127563777,1.0141445973951237
2.8647323661830915,1.0117210153321696
2.8784392196098048,1.0093017528748849
2.892146073036518,1.0068710325982777
2.9058529264632313,1.0046057618867348
2.9195597798899446,1.0016860576357556
2.933266633316658,1.000997418415483
2.9469734867433712,1.0000108165375303
2.960680340170085,1.0001061549903352
2.9743871935967983,0.9985880450048826
2.9880940470235116,0.9977797800104626
3.001800900450225,0.9981965836752669
3.015507753876938,0.9978926055515779
3.0292146073036514,0.9986907470015816
3.0429214607303647,1.0001226763142659
3.056628314157078,1.001187363807247
3.0703351675837918,1.0026016376763982
3.084042021010505,1.0052301312588994
3.0977488744372184,1.0071407041303222
3.1114557278639317,1.009247795463756
3.125162581290645,1.011312374114084
3.1388694347173582,1.0138809387750114
3.1525762881440715,1.0171015863440973
3.1662831415707853,1.0181378270232329
3.1799899949974986,1.022733681536997
3.193696848424212,1.0251447262374829
3.207403701850925,1.0273209251166766
3.2211105552776385,1.0296274023021275
3.2348174087043517,1.0314530033336664
3.248524262131065,1.032296481218182
3.262231115557779,1.0351884698834861
3.275937968984492,1.036062628105678
3.2896448224112054,1.0366054387552721
3.3033516758379187,1.0367567200669658
3.317058529264632,1.0364919087461797
3.3307653826913453,1.036547290759263
3.3444722361180586,1.0369111055720186
3.358179089544772,1.0342342689583128
3.3718859429714856,1.0322449063655017
3.385592796398199,1.0305339139453715
3.399299649824912,1.0330899285091586
3.4130065032516255,1.025499334677356
3.4267133566783388,1.0240777831154741
3.440420210105052,1.0195103948279112
3.4541270635317654,1.0162147174443794
3.467833916958479,1.0122263013674722
3.4815407703851924,1.0077726433828595
3.4952476238119057,1.0031412755626274
3.508954477238619,0.9995538397485213
3.5226613306653323,0.9944773662645148
3.5363681840920456,0.9904011889919918
3.550075037518759,0.9848575076716741
3.5637818909454726,0.981100224759642
3.577488744372186,0.9764598784191678
3.591195597798899,0.9724297698993684
3.6049024512256125,0.9677612333744832
3.6186093046523258,0.9656752263602222
3.632316158079039,0.9621963280603908
3.6460230115057524,0.9588069872184865
3.659729864932466,0.9563422386432546
3.6734367183591794,0.9543665013067637
3.6871435717858927,0.9525801291772833
3.700850425212606,0.9506299680061524
3.7145572786393193,0.950778783627471
3.7282641320660326,0.9498692633764488
3.741970985492746,0.950561962563942
3.755677838919459,0.9502849067601687
3.769384692346173,0.9514315640365832
3.783091545772886,0.9530754312687388
3.7967983991995995,0.9536143361665282
3.810505252626313,0.9568396298726348
3.824212106053026,0.9602189566706044
3.8379189594797394,0.9614531516188168
3.8516258129064527,0.9646741740385
3.8653326663331664,0.9670663249085186
3.8790395197598797,0.9715655708202638
3.892746373186593,0.9749389901050355
3.9064532266133063,0.9780810365759102
3.9201600800400196,0.9809610324793514
3.933866933466733,0.9846452509843768
3.947573786893446,0.9895810648698783
3.96128064032016,0.9921911345762241
3.974987493746873,0.9941879706996644
3.9886943471735865,0.9975591302420095
4.0024012006003,1.000022646528768
4.016108054027013,1.001836055905882
4.029814907453726,1.0036527595790048
4.04352176088044,1.0064582251370089
4.057228614307153,1.0076249861155075
4.070935467733866,1.0076377457190684
4.08464232116058,1.0084829837516798
4.098349174587293,1.0087565238587737
4.112056028014007,1.008301389668888
4.12576288144072,1.0087524503300842
4.139469734867434,1.0058832913506
4.153176588294147,1.0060282604558146
4.16688344172086,1.005148759832211
4.1805902951475735,1.003527983128832
4.194297148574287,1.0020881978576206
4.208004002001,0.9998656457991744
4.221710855427713,0.9968920816284523
4.235417708854427,0.996358464131285
4.24912456228114,0.9941004338403275
4.262831415707853,0.9910203922551051
4.276538269134567,0.9875502581160844
4.29024512256128,0.9872219875435603
4.303951975987993,0.9845229197690144
4.317658829414707,0.9831234442839378
4.331365682841421,0.9813027845565699
4.345072536268134,0.9808054556953946
4.358779389694847,0.979755110809317
4.3724862431215605,0.9795576390929401
4.386193096548274,0.9803189545346073
4.399899949974987,0.9783861925448473
4.4136068034017,0.9799300788546181
4.427313656828414,0.9810246158333857
4.441020510255127,0.9809779901285005
4.45472736368184,0.9826510220689787
4.468434217108554,0.9853772802995939
4.482141070535267,0.9882855046799207
4.49584792396198,0.9910590568411588
4.5095547773886935,0.9942898880346981
4.523261630815408,0.996875071836347
4.536968484242121,0.9998977291392649
4.550675337668834,1.0050312331373632
4.5643821910955475,1.0084671026156515
4.578089044522261,1.0133790029168137
4.591795897948974,1.0174433545955357
4.605502751375687,1.0212249790277301
4.619209604802401,1.024951916517063
4.632916458229114,1.027570067849808
4.646623311655827,1.031103677361659
4.660330165082541,1.036651549404805
4.674037018509254,1.0396921202055263
4.687743871935967,1.0422262196245775
4.7014507253626805,1.0458297919674608
4.715157578789395,1.0472576445061532
4.728864432216108,1.0501718208128428
4.742571285642821,1.0511018928791593
4.756278139069535,1.0516648533328408
4.769984992496248,1.0528454017092763
4.783691845922961,1.0533185332580624
4.7973986993496744,1.0542553284481209
4.811105552776388,1.0532630414815758
4.824812406203101,1.0510403552101302
4.838519259629814,1.05037887110488
4.852226113056528,1.049111847388983
4.865932966483241,1.0461108804316126
4.879639819909954,1.0436629888101496
4.8933466733366675,1.041306724044872
4.907053526763381,1.0363342167321294
4.920760380190095,1.0337159955111779
4.934467233616808,1.029499973978268
4.948174087043522,1.0267955459539122
4.961880940470235,1.0224456058048805
4.975587793896948,1.017123121138782
4.9892946473236615,1.0126140398112387
5.003001500750375,1.0101000106789246
5.016708354177088,1.004669215790562
5.030415207603801,1.000801086275093
5.044122061030515,0.9982674805875431
5.057828914457228,0.9936389359665753
5.071535767883941,0.9914152458621498
5.0852426213106545,0.9877052177459451
5.098949474737368,0.9836635833257756
5.112656328164081,0.9817347962904607
5.126363181590795,0.9806845128089674
5.140070035017509,0.9796129470143105
5.153776888444222,0.976838807373522
5.167483741870935,0.9761883994583433
5.1811905952976485,0.9767952048712347
5.194897448724362,0.9761207415535578
5.208604302151075,0.9774504581843882
5.222311155577788,0.9773774259725639
5.236018009004502,0.9786476701963518
5.249724862431215,0.9807105716706734
5.263431715857928,0.9824291373284959
5.2771385692846415,0.9823377401464752
5.290845422711355,0.9857637908802475
5.304552276138068,0.9866934890686279
5.318259129564782,0.9883922149912756
5.331965982991496,0.991024747610933
5.345672836418209,0.9932307870679117
5.359379689844922,0.9948900814554158
5.3730865432716355,0.9972747092216794
5.386793396698349,0.9988834910500533
5.400500250125062,1.0017871295584138
5.414207103551775,1.0033570487418182
5.427913956978489,1.0049981566938733
5.441620810405202,1.0042812193251185
5.455327663831915,1.0066508128870901
5.4690345172586285,1.0062170449518766
5.482741370685342,1.0067005055440466
5.496448224112055,1.0059472642325635
5.510155077538768,1.0055947865583554
5.523861930965483,1.0048143834542398
5.537568784392196,1.0041638254108138
5.551275637818909,1.0027283657147879
5.5649824912456225,1.000553153980024
5.578689344672336,0.9971213629322683
5.592396198099049,0.9954479896625873
5.606103051525762,0.993010815247335
5.619809904952476,0.9900388326353283
5.633516758379189,0.9864360950275525
5.647223611805902,0.9836806639717179
5.660930465232616,0.9805292074603
5.674637318659329,0.9771903822099451
5.688344172086042,0.9732452342968544
5.7020510255127554,0.9705578374808231
5.71575787893947,0.9680890332662613
5.729464732366183,0.964719166059412
5.743171585792896,0.9613432549934023
5.7568784392196095,0.9588218145035065
5.770585292646323,0.9567322067029183
5.784292146073036,0.9552176859445466
5.797998999499749,0.9533126842022264
5.811705852926463,0.9529910170418732
5.825412706353176,0.9520898630441331
5.839119559779889,0.9515058677359239
5.852826413206603,0.9511386978278406
5.866533266633316,0.9524615398943213
5.880240120060029,0.9538781985229904
5.8939469734867425,0.954362319829801
5.907653826913456,0.9575781560561047
5.92136068034017,0.9598388804421308
5.935067533766883,0.9622106900111198
5.9487743871935965,0.9654620391371568
5.96248124062031,0.9690758388495194
5.976188094047023,0.9721180831780297
5.989894947473736,0.9755138685579102
6.00360180090045,0.9815115780861697
6.017308654327163,0.9859291216694758
6.031015507753876,0.9893861360711027
6.04472236118059,0.9933850741810423
6.058429214607303,0.999381943896036
6.072136068034016,1.001899971622302
6.0858429214607295,1.0071649057136214
6.099549774887443,1.0110955699018038
6.113256628314156,1.016487699751872
6.12696348174087,1.0189378016468202
6.1406703351675835,1.023466913942141
6.154377188594297,1.026748178884879
6.16808404202101,1.0295853136080575
6.181790895447723,1.0331513212350962
6.195497748874437,1.0361305400796081
6.20920460230115,1.0365352448137988
6.222911455727863,1.0385241353038397
6.236618309154577,1.0393579230120449
6.25032516258129,1.0410635822247811
6.264032016008003,1.0385726638568078
6.2777388694347165,1.040374702836595
6.29144572286143,1.0358015574896444
6.305152576288143,1.037210071565298
6.318859429714857,1.0358824624771417
6.3325662831415706,1.0356994130192883
6.346273136568284,1.0331107862979387
6.359979989994997,1.0299837497575697
6.37368684342171,1.0268187463475986
6.387393696848424,1.0253119767969385
6.401100550275137,1.021823719985051
6.41480740370185,1.0199339458325163
6.428514257128564,1.018744394003809
6.442221110555277,1.0141531736789036
6.45592796398199,1.012897613465606
6.4696348174087035,1.0087816746115066
6.483341670835417,1.0072190185537822
6.49704852426213,1.004829701732289
6.510755377688843,1.0014031213535175
6.524462231115558,1.0012096750240567
6.538169084542271,1.0003833718153452
6.551875937968984,0.9985547147649261
6.5655827913956974,0.997806556274108
6.579289644822411,0.9974194593910851
6.592996498249124,0.9981351938207988
6.606703351675837,0.9988446901124639
6.620410205102551,0.9973472251474059
6.634117058529264,0.9986122411603221
6.647823911955977,1.0012136239643834
6.6615307653826905,1.002312339917591
6.675237618809404,1.004437322762441
6.688944472236117,1.0071542530754725
6.70265132566283,1.0084654230110401
6.716358179089544,1.0102528424299182
6.730065032516258,1.013530393396869
6.743771885942971,1.015884687946789
6.7574787393696845,1.0181135038656153
6.771185592796398,1.021665372712076
6.784892446223111,1.023149197288143
6.798599299649824,1.0259740666267054
6.812306153076538,1.0286770186181626
6.826013006503251,1.030243221693445
6.839719859929964,1.0315019558573035
6.8534267133566775,1.033173776215373
6.867133566783391,1.0342948715880371
6.880840420210104,1.0361484899690045
6.894547273636817,1.0352472296961521
6.908254127063531,1.036331134583443
6.921960980490245,1.034865997082158
6.935667833916958,1.033423875358706
6.9493746873436715,1.033116811783827
6.963081540770385,1.026405565053799
6.976788394197098,1.0282282870600843
6.990495247623811,1.0258269455552838
7.004202101050525,1.0230585471368212
7.017908954477238,1.0209902878970307
7.031615807903951,1.0175582552400917
7.0453226613306645,1.0131663712392405
7.059029514757378,1.0099386141294977
7.072736368184091,1.0050973912866885
7.086443221610804,1.0007686848767579
7.100150075037518,0.9965198857121119
7.113856928464231,0.991985517136785
7.127563781890945,0.987508957514309
7.1412706353176585,0.9830921025155993
7.154977488744372,0.9780939625996915
7.168684342171085,0.9748793214316563
7.182391195597798,0.9706440330130007
7.196098049024512,0.9669057441315853
7.209804902451225,0.9623362427603296
7.223511755877938,0.9602262994126622
7.2372186093046516,0.9573027017192124
7.250925462731365,0.9537234157521709
7.264632316158078,0.9530872892387833
7.278339169584791,0.9502845642592193
7.292046023011505,0.9498644165695634
7.305752876438218,0.9505592993338012
7.319459729864932,0.9490627238451277
7.3331665832916455,0.9490896900445648
7.346873436718359,0.9499049127954632
