time,flux
0.0,1.0403762241640437
0.013706853426713355,1.040601803452123
0.02741370685342671,1.038443990543102
0.041120560280140064,1.0353773140160873
0.05482741370685342,1.032783839171515
0.06853426713356678,1.028138127598303
0.08224112056028013,1.024718398621623
0.09594797398699349,1.0188615766049869
0.10965482741370684,1.0141296774626978
0.1233616808404202,1.0091999381085495
0.13706853426713356,1.0046743722543634
0.1507753876938469,0.9978691910690721
0.16448224112056026,0.9937581878469595
0.1781890945472736,0.9900544413751314
0.19189594797398699,0.9856057616792486
0.20560280140070034,0.9826670165307738
0.21930965482741369,0.9794399711907208
0.23301650825412704,0.9774342809643556
0.2467233616808404,0.9793420604422274
0.26043021510755376,0.97728805948538
0.2741370685342671,0.9758662319000424
0.28784392196098046,0.976204248247445
0.3015507753876938,0.9771533986152482
0.31525762881440716,0.9792626809441891
0.3289644822411205,0.9811989035405144
0.34267133566783387,0.9827812950270617
0.3563781890945472,0.9865332814018413
0.3700850425212606,0.9891964133576853
0.38379189594797397,0.9919617989888436
0.3974987493746873,0.9952245273044591
0.41120560280140067,0.9974094478569733
0.424912456228114,1.001559999721361
0.43861930965482737,1.0046876185549953
0.4523261630815407,1.0065108387913078
0.46603301650825407,1.0081090834944348
0.4797398699349674,1.0098809858276756
0.4934467233616808,1.0110538048747744
0.5071535767883941,1.0115904414915267
0.5208604302151075,1.0117511573713396
0.5345672836418208,1.0101585669798858
0.5482741370685342,1.0095696366380502
0.5619809904952475,1.008440823297704
0.5756878439219609,1.0061732592362072
0.5893946973486743,1.004851329899075
0.6031015507753876,1.0025511327655046
0.616808404202101,0.9998686966838818
0.6305152576288143,0.99680573696711
0.6442221110555277,0.9948209537894918
0.657928964482241,0.991647495758883
0.6716358179089544,0.990422003838261
0.6853426713356677,0.9870801546525733
0.6990495247623811,0.9854596157440275
0.7127563781890944,0.9842684227510845
0.7264632316158078,0.9835903518221485
0.7401700850425212,0.9841917389469862
0.7538769384692345,0.9835415256367677
0.7675837918959479,0.983933055719759
0.7812906453226612,0.9838849126497207
0.7949974987493746,0.9851033008163456
0.8087043521760879,0.9875719943471896
0.8224112056028013,0.9890515567925336
0.8361180590295146,0.9916081629917546
0.849824912456228,0.9941518789462124
0.8635317658829413,0.9964666892584674
0.8772386193096547,1.000317737622234
0.8909454727363681,1.0036045199454295
0.9046523261630814,1.0055700230998572
0.9183591795897948,1.009550918469516
0.9320660330165081,1.0101954318580955
0.9457728864432215,1.013049794388737
0.9594797398699348,1.0177609491807533
0.9731865932966483,1.0179069082745555
0.9868934467233615,1.019482942891654
1.000600300150075,1.0208538555654354
1.0143071535767882,1.0214734189868933
1.0280140070035018,1.0226719081335482
1.041720860430215,1.0227082778888825
1.0554277138569284,1.0214839329431749
1.0691345672836416,1.0206313619057323
1.0828414207103552,1.0189452741335743
1.0965482741370685,1.0192974686690994
1.1102551275637818,1.0166194933641737
1.123961980990495,1.015444408778627
1.1376688344172086,1.0122698222878006
1.1513756878439219,1.0102084469671837
1.1650825412706352,1.0075711602127284
1.1787893946973487,1.0066364435934754
1.192496248124062,1.0035443785726386
1.2062031015507753,1.0014627492001755
1.2199099549774886,1.0004229409634482
1.233616808404202,0.998228715056906
1.2473236618309154,0.9976343873214901
1.2610305152576287,0.9955546407666128
1.274737368684342,0.9938665293194664
1.2884442221110555,0.9926166695296914
1.3021510755377688,0.9909581973709463
1.315857928964482,0.9911586206317239
1.3295647823911956,0.9900693062275744
1.3432716358179089,0.9893962905353072
1.3569784892446222,0.9883424531103571
1.3706853426713355,0.98940646102439
1.384392196098049,0.9887072274311702
1.3980990495247623,0.9882640707931026
1.4118059029514756,0.9881273257828669
1.4255127563781889,0.9884105754721069
1.4392196098049024,0.9871677362139514
1.4529264632316157,0.9873787240252916
1.466633316658329,0.9872124780966709
1.4803401700850425,0.9879948936716988
1.4940470235117558,0.9860139843405225
1.507753876938469,0.9858580948306379
1.5214607303651824,0.9853023774452244
1.5351675837918959,0.9852932403557985
1.5488744372186092,0.9842103820203233
1.5625812906453225,0.9855943083054248
1.5762881440720358,0.9848546036723782
1.5899949974987493,0.9855416912249799
1.6037018509254626,0.9863082478346942
1.6174087043521759,0.9866274629382954
1.6311155577788894,0.9868903042367542
1.6448224112056027,0.9885168173486203
1.658529264632316,0.9900486334079077
1.6722361180590293,0.9912852932892461
1.6859429714857428,0.9927142244919774
1.699649824912456,0.995205430898157
1.7133566783391694,0.9991402273366731
1.7270635317658827,1.001137510364614
1.7407703851925962,1.0038337617543647
1.7544772386193095,1.0067249715328426
1.7681840920460228,1.0092425350753778
1.7818909454727363,1.0131443200061154
1.7955977988994496,1.0165159184016237
1.8093046523261629,1.0185663738465698
1.8230115057528762,1.0207245796048205
1.8367183591795897,1.0236619635070363
1.850425212606303,1.0262959637067979
1.8641320660330163,1.0277372574673476
1.8778389194597296,1.0285595110120542
1.891545772886443,1.029939276874392
1.9052526263131564,1.0297562740459167
1.9189594797398697,1.0290131659233233
1.9326663331665832,1.0283423285110265
1.9463731865932965,1.026671984508645
1.9600800400200098,1.0248034826226544
1.973786893446723,1.0223081805795624
1.9874937468734366,1.0194329235131
2.00120060030015,1.016199629338541
2.014907453726863,1.0125945201642559
2.0286143071535765,1.0081100937438225
2.04232116058029,1.0054476025748207
2.0560280140070035,1.0004846676372599
2.069734867433717,0.9963130860729538
2.08344172086043,0.992390332972919
2.0971485742871434,0.9890018707541662
2.1108554277138567,0.9845140483498076
2.12456228114057,0.9826172251044794
2.1382691345672833,0.9794269682664261
2.1519759879939966,0.9758233410589813
2.1656828414207103,0.9747123201033462
2.1793896948474236,0.9730807552516524
2.193096548274137,0.9722948070381703
2.20680340170085,0.9729136505236986
2.2205102551275635,0.9738613677739145
2.234217108554277,0.9756117141431793
2.24792396198099,0.9768846763540993
2.261630815407704,0.9796375297701104
2.275337668834417,0.9815582143649184
2.2890445222611304,0.9847923601278812
2.3027513756878437,0.9884591148113526
2.316458229114557,0.9922859623139443
2.3301650825412703,0.9966626269619979
2.3438719359679836,1.0001407058519245
2.3575787893946973,1.0028360773378335
2.3712856428214106,1.005843948273991
2.384992496248124,1.0089008958708927
2.3986993496748372,1.0120366195138797
2.4124062031015505,1.0135994914242232
2.426113056528264,1.0165753738897807
2.439819909954977,1.016087891294192
2.4535267633816904,1.0162472866455639
2.467233616808404,1.0174098445705422
2.4809404702351174,1.015324633031614
2.4946473236618307,1.0143426134253732
2.508354177088544,1.0130018740624382
2.5220610305152573,1.0096432615147233
2.5357678839419706,1.0073644081610145
2.549474737368684,1.0034948788588416
2.5631815907953976,1.0014033260404624
2.576888444222111,0.9974374457646218
2.5905952976488242,0.9956282377751001
2.6043021510755375,0.9906679213084629
2.618009004502251,0.9877800811890746
2.631715857928964,0.9851766988043296
2.6454227113556774,0.9825930694610966
2.659129564782391,0.9805488096774011
2.6728364182091044,0.9785288911344185
2.6865432716358177,0.9781601047547848
2.700250125062531,0.9784197599827273
2.7139569784892443,0.9780852408596645
2.7276638319159576,0.9801305407838382
2.741370685342671,0.982178324198662
2.755077538769384,0.9849822894765928
2.768784392196098,0.9867431237166123
2.7824912456228112,0.9910188792420785
2.7961980990495245,0.9950740919884966
2.809904952476238,0.9999842331158396
2.823611805902951,1.0036207387963918
2.8373186593296644,1.0089482773472382
2.8510255127563777,1.0140752778042699
2.8647323661830915,1.0180987682817695
2.8784392196098048,1.0220054451145208
2.892146073036518,1.0267321711687893
2.9058529264632313,1.0297695490604826
2.9195597798899446,1.032539509414822
2.933266633316658,1.034922744318487
2.9469734867433712,1.03704537509165
2.960680340170085,1.0373170137283814
2.9743871935967983,1.0379684534309557
2.9880940470235116,1.038032810242385
3.001800900450225,1.036277282298502
3.015507753876938,1.031596095113881
3.0292146073036514,1.0299770395139138
3.0429214607303647,1.0252535477552867
3.056628314157078,1.0215007255879507
3.0703351675837918,1.0167405112329624
3.084042021010505,1.0114156076782987
3.0977488744372184,1.0059166997707676
3.1114557278639317,0.9989919161123186
3.125162581290645,0.9933797391798
3.1388694347173582,0.989141690843982
3.1525762881440715,0.982121557559817
3.1662831415707853,0.9777781687877399
3.1799899949974986,0.9727789746245574
3.193696848424212,0.969872618071211
3.207403701850925,0.9652434866744901
3.2211105552776385,0.9622293627568076
3.2348174087043517,0.9606937811860251
3.248524262131065,0.9596189607705156
3.262231115557779,0.9589564785626655
3.275937968984492,0.9599682408783873
3.2896448224112054,0.9615057107032
3.3033516758379187,0.9633877159373362
3.317058529264632,0.9656414194327184
3.3307653826913453,0.9692931271989134
3.3444722361180586,0.9729844627695599
3.358179089544772,0.9764193441183776
3.3718859429714856,0.9818287532603078
3.385592796398199,0.985491825206218
3.399299649824912,0.991575562917355
3.4130065032516255,0.9958390119409257
3.4267133566783388,1.0009681268117432
3.440420210105052,1.0054927919037968
3.4541270635317654,1.0099272079919999
3.467833916958479,1.0133338465622503
3.4815407703851924,1.0156161897772447
3.4952476238119057,1.018767978964697
3.508954477238619,1.0215594789959348
3.5226613306653323,1.0234572229358103
3.5363681840920456,1.0239936585417904
3.550075037518759,1.0246900050997143
3.5637818909454726,1.0249006087775956
3.577488744372186,1.0246315871364549
3.591195597798899,1.0235908767069162
3.6049024512256125,1.0215354832707455
3.6186093046523258,1.0202205036065617
3.632316158079039,1.0174178747851503
3.6460230115057524,1.0154597543646653
3.659729864932466,1.0127681167558507
3.6734367183591794,1.0109540254746658
3.6871435717858927,1.0087349479432286
3.700850425212606,1.0064823464554091
3.7145572786393193,1.0036159435620908
3.7282641320660326,1.0016012631523783
3.741970985492746,0.9998006576087225
3.755677838919459,0.9993521777436367
3.769384692346173,0.9973767563515485
3.783091545772886,0.9966637654707937
3.7967983991995995,0.9968811234623678
3.810505252626313,0.9971910214348826
3.824212106053026,0.9975017970807134
3.8379189594797394,0.9967247959229346
3.8516258129064527,0.9972473160496492
3.8653326663331664,0.9983683554634349
3.8790395197598797,0.9983164958815608
3.892746373186593,0.9997710550360485
3.9064532266133063,1.000351899997113
3.9201600800400196,1.001039079643081
3.933866933466733,1.0026614056389256
3.947573786893446,1.003173242144613
3.96128064032016,1.0028805577711208
3.974987493746873,1.0039856695589982
3.9886943471735865,1.0049122992773518
4.0024012006003,1.0037388773303149
4.016108054027013,1.0032011735812139
4.029814907453726,1.0037679566654734
4.04352176088044,1.001603475684394
4.057228614307153,1.0012301981673002
4.070935467733866,0.9994798453902681
4.08464232116058,0.9995897958753388
4.098349174587293,0.9975110288739217
4.112056028014007,0.9955304805989807
4.12576288144072,0.9941395117692832
4.139469734867434,0.992648537082584
4.153176588294147,0.9917292249377673
4.16688344172086,0.9918822916554588
4.1805902951475735,0.988788332025731
4.194297148574287,0.9880631046545664
4.208004002001,0.9875544058868656
4.221710855427713,0.9864797840909922
4.235417708854427,0.9869313957159331
4.24912456228114,0.9864220740373502
4.262831415707853,0.9875387988584018
4.276538269134567,0.9861946604320375
4.29024512256128,0.987971301129885
4.303951975987993,0.9894042714247557
4.317658829414707,0.9899040362294284
4.331365682841421,0.9912884214670213
4.345072536268134,0.9925258941435885
4.358779389694847,0.9947855943755365
4.3724862431215605,0.9953366887032203
4.386193096548274,0.9979990065628092
4.399899949974987,0.9980443812624572
4.4136068034017,0.9990534425764416
4.427313656828414,1.0005000883246689
4.441020510255127,1.002733350571319
4.45472736368184,1.0031901327292414
4.468434217108554,1.002797297133002
4.482141070535267,1.003771708084102
4.49584792396198,1.0045836276684443
4.5095547773886935,1.0040423509123568
4.523261630815408,1.0037560491843187
4.536968484242121,1.004029873550253
4.550675337668834,1.003635022934027
4.5643821910955475,1.0040273466956906
4.578089044522261,1.0032143034911458
4.591795897948974,1.0031062179603318
4.605502751375687,1.0019969311391488
4.619209604802401,1.0033650129186842
4.632916458229114,1.0025837852301753
4.646623311655827,1.0022754708541313
4.660330165082541,1.0022204700722241
4.674037018509254,1.002511736485673
4.687743871935967,1.0031474658065245
4.7014507253626805,1.0050769544433595
4.715157578789395,1.0058807103670289
4.728864432216108,1.0076640059330368
4.742571285642821,1.0077930341330676
4.756278139069535,1.009709039460582
4.769984992496248,1.010907154757551
4.783691845922961,1.0126445497799743
4.7973986993496744,1.0138528568148304
4.811105552776388,1.0140582068744473
4.824812406203101,1.0160489161352393
4.838519259629814,1.0174416572351246
4.852226113056528,1.0172211346528004
4.865932966483241,1.0179216048942252
4.879639819909954,1.0190316458529052
4.8933466733366675,1.018498940231023
4.907053526763381,1.0171238177699455
4.920760380190095,1.0149927274643749
4.934467233616808,1.0148733714936462
4.948174087043522,1.013114497442227
4.961880940470235,1.0087684247312605
4.975587793896948,1.0065393985374143
4.9892946473236615,1.003489914508869
5.003001500750375,0.9988682555058457
5.016708354177088,0.9940683434356966
5.030415207603801,0.9923753195362192
5.044122061030515,0.9873639330901192
5.057828914457228,0.9835883400579246
5.071535767883941,0.978975934489863
5.0852426213106545,0.9753815686560916
5.098949474737368,0.9681001652120647
5.112656328164081,0.9693233301705261
5.126363181590795,0.9663715228210874
5.140070035017509,0.9653290964929239
5.153776888444222,0.963288389765909
5.167483741870935,0.9579122806819848
5.1811905952976485,0.9641410800603697
5.194897448724362,0.9640812166109823
5.208604302151075,0.9653092906998031
5.222311155577788,0.9676868060203944
5.236018009004502,0.9712759186549793
5.249724862431215,0.9742323806698698
5.263431715857928,0.9781932880488298
5.2771385692846415,0.9833822070546935
5.290845422711355,0.9881319738946965
5.304552276138068,0.9939131595553339
5.318259129564782,0.9987203356387762
5.331965982991496,1.004091651538238
5.345672836418209,1.009510274095342
5.359379689844922,1.0135648868216287
5.3730865432716355,1.018854090410181
5.386793396698349,1.0237498303507284
5.400500250125062,1.028576098624573
5.414207103551775,1.0314135296386582
5.427913956978489,1.0336369256577866
5.441620810405202,1.0363340217407429
5.455327663831915,1.0362348695473806
5.4690345172586285,1.0374408432236841
5.482741370685342,1.0369156518546625
5.496448224112055,1.035926690822711
5.510155077538768,1.0339370391483782
5.523861930965483,1.0305009131409373
5.537568784392196,1.0272909232715313
5.551275637818909,1.0240274984153757
5.5649824912456225,1.0192734299859847
5.578689344672336,1.0167481033613999
5.592396198099049,1.010461863447684
5.606103051525762,1.006218843179173
5.619809904952476,1.0009643721915218
5.633516758379189,0.9965353756430779
5.647223611805902,0.9925941967746577
5.660930465232616,0.9881342911262058
5.674637318659329,0.9852308524545883
5.688344172086042,0.9818529798016842
5.7020510255127554,0.9780059545321181
5.71575787893947,0.9776329596766496
5.729464732366183,0.9760426272837565
5.743171585792896,0.9761024374621053
5.7568784392196095,0.977000831319661
5.770585292646323,0.9769303152552828
5.784292146073036,0.9795070907961847
5.797998999499749,0.9821210706964203
5.811705852926463,0.9846993743458976
5.825412706353176,0.9881845292384788
5.839119559779889,0.9905109242332112
5.852826413206603,0.994041768372938
5.866533266633316,0.9972503419452666
5.880240120060029,1.0012519395322015
5.8939469734867425,1.0036208629021104
5.907653826913456,1.0080937688455882
5.92136068034017,1.0109734360162026
5.935067533766883,1.0141143732463953
5.9487743871935965,1.0157091466649721
5.96248124062031,1.0166627358192333
5.976188094047023,1.0175745431549235
5.989894947473736,1.0178829595290275
6.00360180090045,1.0175218926857292
6.017308654327163,1.0163159583857075
6.031015507753876,1.01374586343126
6.04472236118059,1.0125004219125169
6.058429214607303,1.0096260796236147
6.072136068034016,1.005817401421251
6.0858429214607295,1.0032274282456888
6.099549774887443,0.9983069384131753
6.113256628314156,0.9956842014666649
6.12696348174087,0.9906846060006853
6.1406703351675835,0.9873347898559637
6.154377188594297,0.9838068936487725
6.16808404202101,0.9792346031039805
6.181790895447723,0.9768177971403864
6.195497748874437,0.9745864262309386
6.20920460230115,0.9735787158954765
6.222911455727863,0.9712152691627717
6.236618309154577,0.9714450345915709
6.25032516258129,0.970660009791315
6.264032016008003,0.9726179348645129
6.2777388694347165,0.9723577611803023
6.29144572286143,0.9745540697252593
6.305152576288143,0.9781373914975284
6.318859429714857,0.9807566716181723
6.3325662831415706,0.9848483264951353
6.346273136568284,0.9899404909952438
6.359979989994997,0.9930025648931174
6.37368684342171,0.9979802125152204
6.387393696848424,1.003536966469217
6.401100550275137,1.008596996465147
6.41480740370185,1.0124244711303694
6.428514257128564,1.017572765200254
6.442221110555277,1.0205374839800467
6.45592796398199,1.0247165212824192
6.4696348174087035,1.026868510085206
6.483341670835417,1.0304970947492553
6.49704852426213,1.032232875460597
6.510755377688843,1.034383302171
6.524462231115558,1.0335130417062806
6.538169084542271,1.034288760156907
6.551875937968984,1.032859163097432
6.5655827913956974,1.032251099257659
6.579289644822411,1.0295325426401023
6.592996498249124,1.028092865522704
6.606703351675837,1.0251243823165568
6.620410205102551,1.0220884883896704
6.634117058529264,1.0180746678937551
6.647823911955977,1.0138423464637805
6.6615307653826905,1.0104004384558163
6.675237618809404,1.0060434792526023
6.688944472236117,1.0021818989474354
6.70265132566283,0.9986198895352006
6.716358179089544,0.9947480855728972
6.730065032516258,0.992010903805999
6.743771885942971,0.9885949352466681
6.7574787393696845,0.9867797119790539
6.771185592796398,0.9827985400494167
6.784892446223111,0.9824051656827124
6.798599299649824,0.9802825158000877
6.812306153076538,0.9796515339093455
6.826013006503251,0.9790639620230469
6.839719859929964,0.9783271405005529
6.8534267133566775,0.9782670068112524
6.867133566783391,0.978865106629447
6.880840420210104,0.9790190828340091
6.894547273636817,0.9807373178090059
6.908254127063531,0.9809212380930653
6.921960980490245,0.9838794829413446
6.935667833916958,0.9842936239052865
6.9493746873436715,0.9853257345372257
6.963081540770385,0.9878534950300462
6.976788394197098,0.9881850195691858
6.990495247623811,0.9914213420920331
7.004202101050525,0.9906202986774084
7.017908954477238,0.9924418839581965
7.031615807903951,0.9943067720688059
7.0453226613306645,0.9951469812764809
7.059029514757378,0.9958419540030159
7.072736368184091,0.9970369453150685
7.086443221610804,0.9964965000102025
7.100150075037518,0.9980834561831662
7.113856928464231,0.9968640347370585
7.127563781890945,0.9990761501968132
7.1412706353176585,0.998056949040721
7.154977488744372,0.9987425646348302
7.168684342171085,0.999908805484701
7.182391195597798,1.000666854754493
7.196098049024512,1.000365069196636
7.209804902451225,1.0017254688042054
7.223511755877938,1.0023530586478744
7.2372186093046516,1.004235150663061
7.250925462731365,1.0050163786721624
7.264632316158078,1.006323853050775
7.278339169584791,1.006673412440969
7.292046023011505,1.0083740042008504
7.305752876438218,1.0104132423504393
7.319459729864932,1.0100629821941896
7.3331665832916455,1.0125286905951905
7.346873436718359,1.0133513615076988
