time,flux
0.0,1.001104683439042
0.013706853426713355,0.9993064283814876
0.02741370685342671,0.9984264788535238
0.041120560280140064,1.001243947647118
0.05482741370685342,1.0031197263531408
0.06853426713356678,1.0059720127562937
0.08224112056028013,1.0101594621736492
0.09594797398699349,1.0148637041767286
0.10965482741370684,1.019991223201532
0.1233616808404202,1.0256200904534805
0.13706853426713356,1.0321728239521761
0.1507753876938469,1.0357802861671521
0.16448224112056026,1.0399591800150383
0.1781890945472736,1.0433134248226008
0.19189594797398699,1.0463673887850609
0.20560280140070034,1.0487366936259503
0.21930965482741369,1.046288973379492
0.23301650825412704,1.0459906283964118
0.2467233616808404,1.042200050841705
0.26043021510755376,1.0390131451933686
0.2741370685342671,1.0330597174640825
0.28784392196098046,1.0271583113885623
0.3015507753876938,1.0188445433383069
0.31525762881440716,1.0087323485440378
0.3289644822411205,1.0009750516005087
0.34267133566783387,0.9911305565888787
0.3563781890945472,0.9805682418101943
0.3700850425212606,0.9724337905402302
0.38379189594797397,0.9641694174138716
0.3974987493746873,0.9567858104797727
0.41120560280140067,0.9500320619748203
0.424912456228114,0.9439064544924762
0.43861930965482737,0.9418371826964674
0.4523261630815407,0.9380738244326444
0.46603301650825407,0.9384554642324585
0.4797398699349674,0.9398987770836954
0.4934467233616808,0.9413969811190358
0.5071535767883941,0.9462475515988924
0.5208604302151075,0.9512020780582432
0.5345672836418208,0.9576454387722222
0.5482741370685342,0.9629209619488447
0.5619809904952475,0.9705114767228545
0.5756878439219609,0.9773364393027498
0.5893946973486743,0.9841006036383174
0.6031015507753876,0.9896597397717266
0.616808404202101,0.9955103853758804
0.6305152576288143,0.9997601560292874
0.6442221110555277,1.004330820368634
0.657928964482241,1.006646493377783
0.6716358179089544,1.008739507656379
0.6853426713356677,1.0086413457958676
0.6990495247623811,1.0102086445614493
0.7127563781890944,1.0089197823529057
0.7264632316158078,1.0084653382888442
0.7401700850425212,1.0041058992162666
0.7538769384692345,1.003038964411832
0.7675837918959479,1.0015841015239484
0.7812906453226612,0.9993261970854905
0.7949974987493746,0.9981196568717791
0.8087043521760879,0.997385603721211
0.8224112056028013,0.9984973332843725
0.8361180590295146,0.9992122664534985
0.849824912456228,1.0021160870031725
0.8635317658829413,1.0038838541228672
0.8772386193096547,1.008297477946721
0.8909454727363681,1.0131200550487705
0.9046523261630814,1.0204069046981814
0.9183591795897948,1.025280859404809
0.9320660330165081,1.030079573130253
0.9457728864432215,1.0371405202449049
0.9594797398699348,1.0433640805498274
0.9731865932966483,1.0506496799418346
0.9868934467233615,1.0528555611530075
1.000600300150075,1.056932658269305
1.0143071535767882,1.0607935535988477
1.0280140070035018,1.0609958955095542
1.041720860430215,1.0612284034319293
1.0554277138569284,1.0600461071168452
1.0691345672836416,1.056096539960049
1.0828414207103552,1.0511940076112545
1.0965482741370685,1.0440088628718662
1.1102551275637818,1.0369142676037402
1.123961980990495,1.0286046564724842
1.1376688344172086,1.019329550488336
1.1513756878439219,1.0085571481670017
1.1650825412706352,0.9978265642579855
1.1787893946973487,0.9876230070383978
1.192496248124062,0.9789203866496057
1.2062031015507753,0.9686792624667969
1.2199099549774886,0.9612834829348412
1.233616808404202,0.9538708503778484
1.2473236618309154,0.9485510191359492
1.2610305152576287,0.9437322241935459
1.274737368684342,0.9414881684662032
1.2884442221110555,0.9402732942987844
1.3021510755377688,0.9402871531253422
1.315857928964482,0.9430691258244104
1.3295647823911956,0.9453815476068508
1.3432716358179089,0.9496817646877256
1.3569784892446222,0.9539363986145438
1.3706853426713355,0.9606431490019495
1.384392196098049,0.9664239572703527
1.3980990495247623,0.9723626776350462
1.4118059029514756,0.9784129916844132
1.4255127563781889,0.983742003144921
1.4392196098049024,0.9887183954306058
1.4529264632316157,0.9920182523989285
1.466633316658329,0.9955646888622807
1.4803401700850425,0.9975847028925588
1.4940470235117558,0.9989714001988189
1.507753876938469,0.9997252135689689
1.5214607303651824,0.9982777143823228
1.5351675837918959,0.9963009187053008
1.5488744372186092,0.9958466144945884
1.5625812906453225,0.9933339021251668
1.5762881440720358,0.9921058980814352
1.5899949974987493,0.9898848982079362
1.6037018509254626,0.9879265621917126
1.6174087043521759,0.9870896091905706
1.6311155577788894,0.9885580152966814
1.6448224112056027,0.9884245082692047
1.658529264632316,0.9908900740239942
1.6722361180590293,0.9941873246219971
1.6859429714857428,0.9972368524070422
1.699649824912456,1.0024929498124262
1.7133566783391694,1.0071666595035602
1.7270635317658827,1.0146139922343749
1.7407703851925962,1.0220394034250846
1.7544772386193095,1.0274324346003338
1.7681840920460228,1.035397629159083
1.7818909454727363,1.042216513362654
1.7955977988994496,1.0497380431817982
1.8093046523261629,1.0546188599178055
1.8230115057528762,1.0583735020235334
1.8367183591795897,1.0627092238171105
1.850425212606303,1.06445549297513
1.8641320660330163,1.0638421010250756
1.8778389194597296,1.0630371798697467
1.891545772886443,1.0592480587667503
1.9052526263131564,1.0544305291401328
1.9189594797398697,1.0491151175541131
1.9326663331665832,1.0420997720497645
1.9463731865932965,1.0326334196463385
1.9600800400200098,1.0251186498319163
1.973786893446723,1.0148339533138342
1.9874937468734366,1.005242165559336
2.00120060030015,0.9944127153172833
2.014907453726863,0.9872251324774293
2.0286143071535765,0.9782886534285177
2.04232116058029,0.9706746821809376
2.0560280140070035,0.9633678135719032
2.069734867433717,0.9580008958587871
2.08344172086043,0.9553561224944248
2.0971485742871434,0.9535394185108821
2.1108554277138567,0.9529376652008548
2.12456228114057,0.9535750833144524
2.1382691345672833,0.9543927539524103
2.1519759879939966,0.9580313933377846
2.1656828414207103,0.9621267865800593
2.1793896948474236,0.9658182816780576
2.193096548274137,0.9701947676261427
2.20680340170085,0.9774830994893611
2.2205102551275635,0.9807672406930246
2.234217108554277,0.9870129139387487
2.24792396198099,0.990347463127667
2.261630815407704,0.9936233070894367
2.275337668834417,0.9964559864476995
2.2890445222611304,0.9980496701461481
2.3027513756878437,0.9975560344331336
2.316458229114557,0.9983258157931839
2.3301650825412703,0.9970982539828168
2.3438719359679836,0.9946655639198989
2.3575787893946973,0.9922492575713129
2.3712856428214106,0.9883370458125893
2.384992496248124,0.9855579933485922
2.3986993496748372,0.9824595086395028
2.4124062031015505,0.9790550635387744
2.426113056528264,0.9775496118389063
2.439819909954977,0.9763224142042108
2.4535267633816904,0.9744249742300596
2.467233616808404,0.9751647539868091
2.4809404702351174,0.9754367673925332
2.4946473236618307,0.9787304391911835
2.508354177088544,0.9836576715907743
2.5220610305152573,0.987212394464502
2.5357678839419706,0.9943516459407871
2.549474737368684,0.9996812735715364
2.5631815907953976,1.0072230143291514
2.576888444222111,1.0148029918047738
2.5905952976488242,1.021857895157265
2.6043021510755375,1.0300364998453708
2.618009004502251,1.0374503081548825
2.631715857928964,1.042837313052174
2.6454227113556774,1.0482127501414538
2.659129564782391,1.0525175178726278
2.6728364182091044,1.0538383330856333
2.6865432716358177,1.0562656680956728
2.700250125062531,1.0546967869521287
2.7139569784892443,1.0540236983554605
2.7276638319159576,1.0501349178239368
2.741370685342671,1.0446071390338754
2.755077538769384,1.0390048671540746
2.768784392196098,1.031761707460576
2.7824912456228112,1.0246967977254522
2.7961980990495245,1.0183441187136018
2.809904952476238,1.0090379767259416
2.823611805902951,1.0012926305530319
2.8373186593296644,0.9943511085868343
2.8510255127563777,0.9883442171321642
2.8647323661830915,0.9819347155601839
2.8784392196098048,0.9772597655532552
2.892146073036518,0.9733705950170947
2.9058529264632313,0.9730807636070317
2.9195597798899446,0.9705024754680222
2.933266633316658,0.9716363751263055
2.9469734867433712,0.9732821103129995
2.960680340170085,0.9747055697824527
2.9743871935967983,0.9785195772629331
2.9880940470235116,0.9831680766863521
3.001800900450225,0.9878097329279453
3.015507753876938,0.9917937490436243
3.0292146073036514,0.9975598613688489
3.0429214607303647,1.0013014289173923
3.056628314157078,1.0060516227504577
3.0703351675837918,1.007351396283406
3.084042021010505,1.0095524739641106
3.0977488744372184,1.009879341380931
3.1114557278639317,1.0093787516413546
3.125162581290645,1.0083413036322149
3.1388694347173582,1.005894343118196
3.1525762881440715,1.0024975602280797
3.1662831415707853,0.9979372041590937
3.1799899949974986,0.9932547612484174
3.193696848424212,0.9874711684310774
3.207403701850925,0.9832520516449542
3.2211105552776385,0.9778797945510672
3.2348174087043517,0.972711900437111
3.248524262131065,0.9694231461719571
3.262231115557779,0.9651104944712935
3.275937968984492,0.962823066712297
3.2896448224112054,0.9608710505497436
3.3033516758379187,0.9620032386649707
3.317058529264632,0.9631030458967822
3.3307653826913453,0.9648516852551382
3.3444722361180586,0.9688140388972989
3.358179089544772,0.9742372183474807
3.3718859429714856,0.9806594036062392
3.385592796398199,0.9869639499313537
3.399299649824912,0.9941994012163071
3.4130065032516255,1.002468318608831
3.4267133566783388,1.0090029956023563
3.440420210105052,1.0159852094671948
3.4541270635317654,1.0214547177154834
3.467833916958479,1.027593930309262
3.4815407703851924,1.0318054137269097
3.4952476238119057,1.0350921249231269
3.508954477238619,1.036547094009146
3.5226613306653323,1.0388406603418643
3.5363681840920456,1.0375523039538859
3.550075037518759,1.0368298566084269
3.5637818909454726,1.0318400636573064
3.577488744372186,1.028731374693835
3.591195597798899,1.0223806942891547
3.6049024512256125,1.0184699757665034
3.6186093046523258,1.012784671778738
3.632316158079039,1.0081538454396173
3.6460230115057524,1.0019639626204366
3.659729864932466,0.9976515852313311
3.6734367183591794,0.9931597003701719
3.6871435717858927,0.9885545417214645
3.700850425212606,0.9881692030898855
3.7145572786393193,0.9857739929282359
3.7282641320660326,0.9875472545107948
3.741970985492746,0.986575417868295
3.755677838919459,0.9898702169960496
3.769384692346173,0.9935195856179571
3.783091545772886,0.9984016614623868
3.7967983991995995,1.0026532148868377
3.810505252626313,1.0072205065541078
3.824212106053026,1.0120103806411702
3.8379189594797394,1.0170441907444145
3.8516258129064527,1.0227322812136312
3.8653326663331664,1.0274186787168955
3.8790395197598797,1.0288603975932875
3.892746373186593,1.0313608230255216
3.9064532266133063,1.0325867753342075
3.9201600800400196,1.0308821735425484
3.933866933466733,1.0286617065772137
3.947573786893446,1.0247793540448316
3.96128064032016,1.019854170114062
3.974987493746873,1.0157353257017765
3.9886943471735865,1.008106233847709
4.0024012006003,1.001776451587068
4.016108054027013,0.9929033053055548
4.029814907453726,0.9859041749353084
4.04352176088044,0.9784784809481019
4.057228614307153,0.9709890459366086
4.070935467733866,0.9648232316538696
4.08464232116058,0.9606110375490271
4.098349174587293,0.9556651874174746
4.112056028014007,0.9527954234112187
4.12576288144072,0.9507457223911003
4.139469734867434,0.9511341202339851
4.153176588294147,0.9521436517443274
4.16688344172086,0.9537250970757661
4.1805902951475735,0.9582675546977796
4.194297148574287,0.9629947639803378
4.208004002001,0.9686665884884111
4.221710855427713,0.9746926413939089
4.235417708854427,0.9823779386247996
4.24912456228114,0.9884543676451775
4.262831415707853,0.9945990922880013
4.276538269134567,0.9997923692449585
4.29024512256128,1.0061401097731766
4.303951975987993,1.0121845072152074
4.317658829414707,1.0153167922666795
4.331365682841421,1.0167621547069738
4.345072536268134,1.016939757596712
4.358779389694847,1.0178987255361012
4.3724862431215605,1.0174102411154908
4.386193096548274,1.0159466416489502
4.399899949974987,1.0127988519774578
4.4136068034017,1.0105186505494377
4.427313656828414,1.006144068506119
4.441020510255127,1.0039817705758434
4.45472736368184,0.999305345235137
4.468434217108554,0.9973371811067703
4.482141070535267,0.9947184899970897
4.49584792396198,0.990865223072586
4.5095547773886935,0.9915263940278772
4.523261630815408,0.9897431228976744
4.536968484242121,0.9938307836043868
4.550675337668834,0.9969937081221921
4.5643821910955475,0.9998579281454993
4.578089044522261,1.0056571974699082
4.591795897948974,1.0103782514696005
4.605502751375687,1.0166365081227071
4.619209604802401,1.021601108514345
4.632916458229114,1.028651574264037
4.646623311655827,1.0364871513550564
4.660330165082541,1.0395327813254334
4.674037018509254,1.0451516106282386
4.687743871935967,1.0492664710140702
4.7014507253626805,1.0506500096824067
4.715157578789395,1.0527373814534393
4.728864432216108,1.0518277715006792
4.742571285642821,1.051256182952421
4.756278139069535,1.0488761479901159
4.769984992496248,1.0425098127943124
4.783691845922961,1.0359205306512709
4.7973986993496744,1.0301323308695969
4.811105552776388,1.0210197014497597
4.824812406203101,1.013040703486727
4.838519259629814,1.0032027181825498
4.852226113056528,0.9941467045758386
4.865932966483241,0.9844080008496714
4.879639819909954,0.9757736625455569
4.8933466733366675,0.9670549643989205
4.907053526763381,0.9605499612634842
4.920760380190095,0.9555705727116937
4.934467233616808,0.9504147149858355
4.948174087043522,0.946217528792126
4.961880940470235,0.9448194701997494
4.975587793896948,0.9451676330035612
4.9892946473236615,0.946936108070743
5.003001500750375,0.9498279533213468
5.016708354177088,0.9529947666659387
5.030415207603801,0.95749001968996
5.044122061030515,0.9624065188423968
5.057828914457228,0.9672214326114903
5.071535767883941,0.9743263381095533
5.0852426213106545,0.9781854873947607
5.098949474737368,0.9840536650815075
5.112656328164081,0.989626349784528
5.126363181590795,0.9923158148584931
5.140070035017509,0.995837784175693
5.153776888444222,0.9989563479556693
5.167483741870935,0.998995667516796
5.1811905952976485,1.001927405440253
5.194897448724362,1.0008339921884075
5.208604302151075,0.998573299222584
5.222311155577788,0.9967429809942967
5.236018009004502,0.9954204495519587
5.249724862431215,0.9921565019047506
5.263431715857928,0.9905607916134869
5.2771385692846415,0.9896763691690137
5.290845422711355,0.9872928278423677
5.304552276138068,0.9871190004445712
5.318259129564782,0.9851470797329568
5.331965982991496,0.9882653362878038
5.345672836418209,0.991525057935526
5.359379689844922,0.9940754740222386
5.3730865432716355,0.9979182364478059
5.386793396698349,1.004333757444118
5.400500250125062,1.0097786501013524
5.414207103551775,1.0174113830921139
5.427913956978489,1.0245527854543481
5.441620810405202,1.0324834151996003
5.455327663831915,1.0394680912663283
5.4690345172586285,1.0466389868675816
5.482741370685342,1.0529709596324326
5.496448224112055,1.058041747043128
5.510155077538768,1.0617821360633026
5.523861930965483,1.0656955557929986
5.537568784392196,1.0672292178227365
5.551275637818909,1.0653329646450789
5.5649824912456225,1.0644141208355933
5.578689344672336,1.0602237402401615
5.592396198099049,1.054807892321609
5.606103051525762,1.0490507283313968
5.619809904952476,1.0426186238367738
5.633516758379189,1.0324915908285854
5.647223611805902,1.02295256494859
5.660930465232616,1.0124050394646118
5.674637318659329,1.0025288918068176
5.688344172086042,0.9932462584985079
5.7020510255127554,0.9841324149464582
5.71575787893947,0.9737610606180351
5.729464732366183,0.9674420951825508
5.743171585792896,0.9612687905907481
5.7568784392196095,0.9557064922762072
5.770585292646323,0.9521637122768697
5.784292146073036,0.9486752154130399
5.797998999499749,0.9490573392938615
5.811705852926463,0.9493602842784374
5.825412706353176,0.9500829561841271
5.839119559779889,0.9542642303825483
5.852826413206603,0.9575262614027991
5.866533266633316,0.961750965769979
5.880240120060029,0.9658126970862985
5.8939469734867425,0.9716368247377064
5.907653826913456,0.9761911297200188
5.92136068034017,0.9802629853062659
5.935067533766883,0.9838756418520636
5.9487743871935965,0.9867270965307257
5.96248124062031,0.988615651406227
5.976188094047023,0.9901374365188074
5.989894947473736,0.9904999899639172
6.00360180090045,0.9898382746416523
6.017308654327163,0.9891842633145839
6.031015507753876,0.9866930484894109
6.04472236118059,0.985693064398482
6.058429214607303,0.9826555272849353
6.072136068034016,0.9806490961479051
6.0858429214607295,0.978982614821035
6.099549774887443,0.977387801784278
6.113256628314156,0.9761195867759479
6.12696348174087,0.9761277626046538
6.1406703351675835,0.9776421505916996
6.154377188594297,0.9783821943479583
6.16808404202101,0.9822060438180816
6.181790895447723,0.986267369563271
6.195497748874437,0.991594024390654
6.20920460230115,0.9975827626180119
6.222911455727863,1.0049109555738263
6.236618309154577,1.0123060389299614
6.25032516258129,1.0207526292660405
6.264032016008003,1.0292447081748817
6.2777388694347165,1.037406022278828
6.29144572286143,1.045416435690683
6.305152576288143,1.051597372329182
6.318859429714857,1.0581559606140856
6.3325662831415706,1.0639442982751264
6.346273136568284,1.066983729007383
6.359979989994997,1.0677587917764326
6.37368684342171,1.0670041680267812
6.387393696848424,1.0656638534805347
6.401100550275137,1.0641412902364678
6.41480740370185,1.0584439324258224
6.428514257128564,1.0518945084427551
6.442221110555277,1.0451256885540519
6.45592796398199,1.0364295511192447
6.4696348174087035,1.0280967561481575
6.483341670835417,1.0195458313323171
6.49704852426213,1.009220739975619
6.510755377688843,1.0007907029350283
6.524462231115558,0.9908197295910873
6.538169084542271,0.9830542666932583
6.551875937968984,0.9759665409165982
6.5655827913956974,0.9706010646890396
6.579289644822411,0.965604090123796
6.592996498249124,0.9627393372418231
6.606703351675837,0.9611997778293305
6.620410205102551,0.9604299258451863
6.634117058529264,0.9615104452796228
6.647823911955977,0.9635749306465795
6.6615307653826905,0.9660152966011257
6.675237618809404,0.969959929170225
6.688944472236117,0.9719879316085274
6.70265132566283,0.9764115990701239
6.716358179089544,0.9818578997705389
6.730065032516258,0.9850356194538418
6.743771885942971,0.9889460006696391
6.7574787393696845,0.9906335444915445
6.771185592796398,0.9938029295577477
6.784892446223111,0.9935440601337386
6.798599299649824,0.9942331816775557
6.812306153076538,0.9934346312317499
6.826013006503251,0.9918536799596125
6.839719859929964,0.9885127907902592
6.8534267133566775,0.9845675329967264
6.867133566783391,0.9824557299685176
6.880840420210104,0.977287029486998
6.894547273636817,0.9756488405583197
6.908254127063531,0.9714207570328356
6.921960980490245,0.9687969274987364
6.935667833916958,0.9670821596910897
6.9493746873436715,0.9667231921913626
6.963081540770385,0.9670538493825057
6.976788394197098,0.9678341817789617
6.990495247623811,0.9697733735397682
7.004202101050525,0.974569633806419
7.017908954477238,0.9795479386009879
7.031615807903951,0.9859742158408733
7.0453226613306645,0.992069196117238
7.059029514757378,1.000250903894804
7.072736368184091,1.007577805659702
7.086443221610804,1.016456083575702
7.100150075037518,1.0240109067837755
7.113856928464231,1.0337434590460937
7.127563781890945,1.03941309340041
7.1412706353176585,1.0460439811676907
7.154977488744372,1.0496822567595296
7.168684342171085,1.0536061199699422
7.182391195597798,1.0561792024065588
7.196098049024512,1.0564885228530891
7.209804902451225,1.0573763257300512
7.223511755877938,1.0541267843622395
7.2372186093046516,1.0503189457232298
7.250925462731365,1.044924965746174
7.264632316158078,1.0392584924506416
7.278339169584791,1.0325581087595073
7.292046023011505,1.0249880908268543
7.305752876438218,1.0160143058359157
7.319459729864932,1.0100812846645584
7.3331665832916455,1.0024067605554592
