time,flux
0.0,1.0018486813044682
0.013706853426713355,1.001861645083894
0.02741370685342671,0.9957608733402735
0.041120560280140064,0.9937955366069947
0.05482741370685342,0.991032291828916
0.06853426713356678,0.9834587428382374
0.08224112056028013,0.9757895480587134
0.09594797398699349,0.9660098466949156
0.10965482741370684,0.9603278034085115
0.1233616808404202,0.952755194885258
0.13706853426713356,0.9494607554228196
0.1507753876938469,0.9455327534759362
0.16448224112056026,0.942126604315804
0.1781890945472736,0.9399779547459984
0.19189594797398699,0.9398048998775179
0.20560280140070034,0.9451162555260563
0.21930965482741369,0.9482026945817166
0.23301650825412704,0.9568890867858975
0.2467233616808404,0.9657830289709611
0.26043021510755376,0.973380024287649
0.2741370685342671,0.983627475636706
0.28784392196098046,0.9941030223784016
0.3015507753876938,1.0039327108376588
0.31525762881440716,1.0121280301744902
0.3289644822411205,1.0198655730737822
0.34267133566783387,1.026202040772491
0.3563781890945472,1.028923926006646
0.3700850425212606,1.031728399155047
0.38379189594797397,1.030847709944026
0.3974987493746873,1.0292279500393051
0.41120560280140067,1.0281330421436137
0.424912456228114,1.0255136395131383
0.43861930965482737,1.0218196374120496
0.4523261630815407,1.0147546201364437
0.46603301650825407,1.0110362937280195
0.4797398699349674,1.0075854084413949
0.4934467233616808,1.0037049301747394
0.5071535767883941,1.004417258340142
0.5208604302151075,1.0001955998536143
0.5345672836418208,1.0045604259979164
0.5482741370685342,1.0048308297659454
0.5619809904952475,1.0085535119379312
0.5756878439219609,1.014581664535769
0.5893946973486743,1.0226743185768685
0.6031015507753876,1.0282765745861893
0.616808404202101,1.0315507006752833
0.6305152576288143,1.0370715865203226
0.6442221110555277,1.039742889209175
0.657928964482241,1.0451077565930802
0.6716358179089544,1.048285655531562
0.6853426713356677,1.0486004044048627
0.6990495247623811,1.0429535150733906
0.7127563781890944,1.0434229490954856
0.7264632316158078,1.0380339720904974
0.7401700850425212,1.0287899015813735
0.7538769384692345,1.0205940213203168
0.7675837918959479,1.0126403449468566
0.7812906453226612,1.002158861539301
0.7949974987493746,0.9904066908189963
0.8087043521760879,0.9834752874289789
0.8224112056028013,0.974016553078569
0.8361180590295146,0.967381992377562
0.849824912456228,0.9622132059967148
0.8635317658829413,0.9590799128654574
0.8772386193096547,0.9555006619012515
0.8909454727363681,0.9590474654429839
0.9046523261630814,0.9626200004968203
0.9183591795897948,0.9634521839165527
0.9320660330165081,0.9676423821401849
0.9457728864432215,0.9741871146795953
0.9594797398699348,0.9807145477841946
0.9731865932966483,0.9859877713758644
0.9868934467233615,0.9925271767180889
1.000600300150075,0.9997685138148655
1.0143071535767882,0.999114678652297
1.0280140070035018,1.004477905946091
1.041720860430215,1.0054260393360028
1.0554277138569284,1.0066343995705764
1.0691345672836416,1.002326191522821
1.0828414207103552,1.001463658420764
1.0965482741370685,0.9960419237587058
1.1102551275637818,0.9933502277601267
1.123961980990495,0.9833589418567091
1.1376688344172086,0.9805321014022194
1.1513756878439219,0.9769622067472851
1.1650825412706352,0.9729518289018563
1.1787893946973487,0.9742089967203609
1.192496248124062,0.9721132305431585
1.2062031015507753,0.9741533781152796
1.2199099549774886,0.977574186134913
1.233616808404202,0.9825429044517546
1.2473236618309154,0.9881894266267902
1.2610305152576287,0.9965274766170764
1.274737368684342,1.0052266832563632
1.2884442221110555,1.0126766691750217
1.3021510755377688,1.0213999517326833
1.315857928964482,1.0279680594026275
1.3295647823911956,1.0335080623599826
1.3432716358179089,1.0412515759748278
1.3569784892446222,1.044589124317706
1.3706853426713355,1.048165590117225
1.384392196098049,1.0483084196519052
1.3980990495247623,1.044041373893259
1.4118059029514756,1.0419192262453698
1.4255127563781889,1.0368320328553429
1.4392196098049024,1.0292577424990454
1.4529264632316157,1.018976453992745
1.466633316658329,1.0133051009584217
1.4803401700850425,1.0056646012845745
1.4940470235117558,0.9975238286367754
1.507753876938469,0.9911201563953216
1.5214607303651824,0.9832876831965676
1.5351675837918959,0.9799825062712816
1.5488744372186092,0.977221778628767
1.5625812906453225,0.9781465167206315
1.5762881440720358,0.978538013895596
1.5899949974987493,0.9812691538903189
1.6037018509254626,0.9834985468625769
1.6174087043521759,0.9857453546700249
1.6311155577788894,0.9917337833857914
1.6448224112056027,0.9996755782100714
1.658529264632316,1.0012797364255246
1.6722361180590293,1.0067132275711912
1.6859429714857428,1.00698657029741
1.699649824912456,1.0090483900799785
1.7133566783391694,1.0089761995882773
1.7270635317658827,1.0066760319630785
1.7407703851925962,1.0036858452126562
1.7544772386193095,0.9983955352128959
1.7681840920460228,0.9933365370705824
1.7818909454727363,0.986331940845339
1.7955977988994496,0.9768074559278217
1.8093046523261629,0.9723263132261858
1.8230115057528762,0.9657364843137833
1.8367183591795897,0.9641762432999579
1.850425212606303,0.9556966404815335
1.8641320660330163,0.9543160923348031
1.8778389194597296,0.9552739549324444
1.891545772886443,0.9588725242364764
1.9052526263131564,0.9586098982545186
1.9189594797398697,0.9642627440788758
1.9326663331665832,0.9713877241382666
1.9463731865932965,0.9816194539427721
1.9600800400200098,0.9907980754406414
1.973786893446723,0.9993414671169272
1.9874937468734366,1.0084665104563757
2.00120060030015,1.018042214583564
2.014907453726863,1.027085747906574
2.0286143071535765,1.0320232730216374
2.04232116058029,1.0371061668403123
2.0560280140070035,1.0397584024297755
2.069734867433717,1.0443452953502628
2.08344172086043,1.0421709150999574
2.0971485742871434,1.0402283880844538
2.1108554277138567,1.0356167866324968
2.12456228114057,1.0315218164310758
2.1382691345672833,1.0279886791751096
2.1519759879939966,1.0218549028287773
2.1656828414207103,1.0152158466253594
2.1793896948474236,1.0106720942094962
2.193096548274137,1.005237655508815
2.20680340170085,1.0060569412249125
2.2205102551275635,1.0028799972473874
2.234217108554277,1.00367360822106
2.24792396198099,1.004139318116578
2.261630815407704,1.0065792441825656
2.275337668834417,1.0121186468425043
2.2890445222611304,1.017604004932761
2.3027513756878437,1.0210095597704691
2.316458229114557,1.0265166174714269
2.3301650825412703,1.0326842215797114
2.3438719359679836,1.0334630290507678
2.3575787893946973,1.0387570663912835
2.3712856428214106,1.0358325958150782
2.384992496248124,1.0382135092861549
2.3986993496748372,1.0337733668152453
2.4124062031015505,1.0318667094510567
2.426113056528264,1.0263337707643507
2.439819909954977,1.0167121214889825
2.4535267633816904,1.0054205333685495
2.467233616808404,0.9980362272501138
2.4809404702351174,0.9869268353035691
2.4946473236618307,0.9764780567377918
2.508354177088544,0.9678600959437389
2.5220610305152573,0.9599575428386263
2.5357678839419706,0.9532684097753589
2.549474737368684,0.9467506895918831
2.5631815907953976,0.9435093457983116
2.576888444222111,0.9414252235785031
2.5905952976488242,0.9431799107521622
2.6043021510755375,0.9455648671734286
2.618009004502251,0.9500409369938603
2.631715857928964,0.9556258263601086
2.6454227113556774,0.9621486107497925
2.659129564782391,0.9690739747190616
2.6728364182091044,0.9764169249030904
2.6865432716358177,0.9826691580314189
2.700250125062531,0.9891754027059396
2.7139569784892443,0.9919624232288998
2.7276638319159576,0.9954050445497542
2.741370685342671,1.000031625201773
2.755077538769384,0.9987502199691729
2.768784392196098,0.9982846223583203
2.7824912456228112,0.9932073536136367
2.7961980990495245,0.9918537239137485
2.809904952476238,0.987608535625705
2.823611805902951,0.984869609537372
2.8373186593296644,0.9810513939042618
2.8510255127563777,0.9758786694372253
2.8647323661830915,0.9749901886151625
2.8784392196098048,0.9747895413112246
2.892146073036518,0.9737028507534394
2.9058529264632313,0.9774043249403703
2.9195597798899446,0.9812076740500953
2.933266633316658,0.9887166038053855
2.9469734867433712,0.9961258191667576
2.960680340170085,1.0034336361158858
2.9743871935967983,1.0123238288204945
2.9880940470235116,1.022741960187494
3.001800900450225,1.0320276972974194
3.015507753876938,1.042112758298924
3.0292146073036514,1.047613304333162
3.0429214607303647,1.0538284417753891
3.056628314157078,1.0575347230369638
3.0703351675837918,1.0602393836827304
3.084042021010505,1.0592457500466994
3.0977488744372184,1.0580652590867563
3.1114557278639317,1.056630711263345
3.125162581290645,1.0519370303498154
3.1388694347173582,1.0438439633147005
3.1525762881440715,1.0347526706515078
3.1662831415707853,1.0279150867846214
3.1799899949974986,1.0191950704624602
3.193696848424212,1.0110108356136964
3.207403701850925,1.0050053774657164
3.2211105552776385,1.0004988136751016
3.2348174087043517,0.9946449346273714
3.248524262131065,0.9913588671170362
3.262231115557779,0.9907260657405119
3.275937968984492,0.9929149722886689
3.2896448224112054,0.9926624531370818
3.3033516758379187,0.9944535631351085
3.317058529264632,0.9994623782646779
3.3307653826913453,1.0025546649480004
3.3444722361180586,1.0060792334984838
3.358179089544772,1.0083315182092265
3.3718859429714856,1.0112720572893352
3.385592796398199,1.0122023140814935
3.399299649824912,1.0146915523555184
3.4130065032516255,1.0125364033318651
3.4267133566783388,1.0077522893714483
3.440420210105052,1.0040501981636716
3.4541270635317654,0.996158022797561
3.467833916958479,0.9921726583480444
3.4815407703851924,0.9846662907613173
3.4952476238119057,0.9775660563984836
3.508954477238619,0.9674552758089028
3.5226613306653323,0.959675724344437
3.5363681840920456,0.9520704335495006
3.550075037518759,0.9499657098921714
3.5637818909454726,0.9438307668228756
3.577488744372186,0.9431340808862572
3.591195597798899,0.9456407442230306
3.6049024512256125,0.9464684936861167
3.6186093046523258,0.9526925317256321
3.632316158079039,0.9591758372946738
3.6460230115057524,0.9675369201420329
3.659729864932466,0.976000251947547
3.6734367183591794,0.9842851626801022
3.6871435717858927,0.9960036017128775
3.700850425212606,1.0030544394881926
3.7145572786393193,1.008845342796251
3.7282641320660326,1.0160691044170609
3.741970985492746,1.0212354889792892
3.755677838919459,1.0240543388132164
3.769384692346173,1.0256346280555588
3.783091545772886,1.025639647928167
3.7967983991995995,1.0232814644969954
3.810505252626313,1.023317710356559
3.824212106053026,1.0180457401180296
3.8379189594797394,1.0116762798928176
3.8516258129064527,1.006824125088693
3.8653326663331664,1.0022292248050981
3.8790395197598797,0.9968202998413582
3.892746373186593,0.9938655742837929
3.9064532266133063,0.9920364206057276
3.9201600800400196,0.9921172547194516
3.933866933466733,0.9943363681081999
3.947573786893446,0.996996639235604
3.96128064032016,1.0003240122830512
3.974987493746873,1.0061462318280574
3.9886943471735865,1.0125322997929689
4.0024012006003,1.0197048149813546
4.016108054027013,1.0226773205471544
4.029814907453726,1.0306216399691652
4.04352176088044,1.0354109077586109
4.057228614307153,1.0375436348238614
4.070935467733866,1.04096854681731
4.08464232116058,1.0388186510571558
4.098349174587293,1.0392711890867636
4.112056028014007,1.0352570100941476
4.12576288144072,1.0300687036730294
4.139469734867434,1.0230973974110067
4.153176588294147,1.0140300408064908
4.16688344172086,1.0055747783601583
4.1805902951475735,0.9979555929595214
4.194297148574287,0.987721745143057
4.208004002001,0.9792762730472598
4.221710855427713,0.9710319956196506
4.235417708854427,0.9658085413556157
4.24912456228114,0.961889437311205
4.262831415707853,0.957881769794313
4.276538269134567,0.9557279568259238
4.29024512256128,0.9583666779468624
4.303951975987993,0.9635614782680728
4.317658829414707,0.9682572963118167
4.331365682841421,0.9734768367619252
4.345072536268134,0.9784097000569063
4.358779389694847,0.9834983242308869
4.3724862431215605,0.9908994442245239
4.386193096548274,0.9985348593822682
4.399899949974987,1.0034038288684652
4.4136068034017,1.0099602816130009
4.427313656828414,1.0106125770813272
4.441020510255127,1.0112421459322267
4.45472736368184,1.0106349313018426
4.468434217108554,1.0088597821121126
4.482141070535267,1.0039961338578527
4.49584792396198,1.0013759893707637
4.5095547773886935,0.99760512916847
4.523261630815408,0.9890081264879388
4.536968484242121,0.987312609190583
4.550675337668834,0.9849364739974666
4.5643821910955475,0.9791445022410927
4.578089044522261,0.9797456113057187
4.591795897948974,0.9809142747600316
4.605502751375687,0.9833113854906439
4.619209604802401,0.9863030699562041
4.632916458229114,0.9927715402205186
4.646623311655827,0.9974839419603704
4.660330165082541,1.0051325300289753
4.674037018509254,1.0110925980805778
4.687743871935967,1.0233112307617143
4.7014507253626805,1.029349459913806
4.715157578789395,1.0363632477137177
4.728864432216108,1.0449393789000245
4.742571285642821,1.0479602089829776
4.756278139069535,1.0525515107447614
4.769984992496248,1.0551261959350418
4.783691845922961,1.0529641699503893
4.7973986993496744,1.0498587036957914
4.811105552776388,1.0441643768842617
4.824812406203101,1.0390074594225596
4.838519259629814,1.0315339868027464
4.852226113056528,1.024090007713405
4.865932966483241,1.014671503158415
4.879639819909954,1.0078568458200658
4.8933466733366675,0.9983321384307036
4.907053526763381,0.9903235050228493
4.920760380190095,0.984729287664273
4.934467233616808,0.9804694023412445
4.948174087043522,0.9774245146077517
4.961880940470235,0.9785808358829136
4.975587793896948,0.978392538445726
4.9892946473236615,0.9791611594611325
5.003001500750375,0.9816277655016208
5.016708354177088,0.9853015775190088
5.030415207603801,0.9895410866800911
5.044122061030515,0.9949723609367781
5.057828914457228,0.9973867859058175
5.071535767883941,1.000495314750128
5.0852426213106545,1.0009683975524233
5.098949474737368,1.0042774952341218
5.112656328164081,1.000234662515121
5.126363181590795,0.9999463510090443
5.140070035017509,0.9924440064335669
5.153776888444222,0.9876001826907882
5.167483741870935,0.9813044722177053
5.1811905952976485,0.9748638083487032
5.194897448724362,0.9654062385386113
5.208604302151075,0.9625209286100316
5.222311155577788,0.9565082914785218
5.236018009004502,0.9512148900906483
5.249724862431215,0.9462073038989774
5.263431715857928,0.9443412941745689
5.2771385692846415,0.947076388439532
5.290845422711355,0.9460209148761429
5.304552276138068,0.9489059129289236
5.318259129564782,0.9567984566725858
5.331965982991496,0.9633581090820384
5.345672836418209,0.9704623762860789
5.359379689844922,0.9833043149507518
5.3730865432716355,0.992756180292367
5.386793396698349,1.0038407414052468
5.400500250125062,1.0137394933559718
5.414207103551775,1.01856285492707
5.427913956978489,1.0265852424487472
5.441620810405202,1.032691517862587
5.455327663831915,1.0357255922281943
5.4690345172586285,1.038509109621092
5.482741370685342,1.0369070815590293
5.496448224112055,1.0353015513603945
5.510155077538768,1.0347755475502105
5.523861930965483,1.0303870493382241
5.537568784392196,1.0273968259070891
5.551275637818909,1.0200782885367936
5.5649824912456225,1.0154850334754681
5.578689344672336,1.0104624238800928
5.592396198099049,1.0091379536353153
5.606103051525762,1.0090002885620533
5.619809904952476,1.008777246473703
5.633516758379189,1.0089010364263504
5.647223611805902,1.0129448808641413
5.660930465232616,1.0152597833361519
5.674637318659329,1.0189656511809737
5.688344172086042,1.0259669864493546
5.7020510255127554,1.0314463116545556
5.71575787893947,1.0353574256810907
5.729464732366183,1.0406002466160165
5.743171585792896,1.0455153633593173
5.7568784392196095,1.050756061822754
5.770585292646323,1.0487364039964064
5.784292146073036,1.0490573304492155
5.797998999499749,1.0442120483854918
5.811705852926463,1.040667911879467
5.825412706353176,1.0338284196361216
5.839119559779889,1.0264093394640674
5.852826413206603,1.018052613472352
5.866533266633316,1.0064403385879408
5.880240120060029,0.9980891178805628
5.8939469734867425,0.9882030403660514
5.907653826913456,0.9764713063179301
5.92136068034017,0.9666841011001855
5.935067533766883,0.9622126718916901
5.9487743871935965,0.955620152977078
5.96248124062031,0.9509058268070302
5.976188094047023,0.9518751680559485
5.989894947473736,0.9522664200425228
6.00360180090045,0.9546358211989693
6.017308654327163,0.9579827825371612
6.031015507753876,0.964959880970216
6.04472236118059,0.967910070233256
6.058429214607303,0.9739789449074433
6.072136068034016,0.98001719123535
6.0858429214607295,0.9858467438549054
6.099549774887443,0.9884221801547569
6.113256628314156,0.9937664937259785
6.12696348174087,0.9939523036852411
6.1406703351675835,0.9946761318806228
6.154377188594297,0.9939046202728221
6.16808404202101,0.9938178127538781
6.181790895447723,0.9871995823664672
6.195497748874437,0.9854588315065727
6.20920460230115,0.9795012995099462
6.222911455727863,0.9763915496273564
6.236618309154577,0.972077602616965
6.25032516258129,0.9684001798598371
6.264032016008003,0.9642489587031116
6.2777388694347165,0.9638720627468853
6.29144572286143,0.966321024761247
6.305152576288143,0.9706243384563162
6.318859429714857,0.9731850754533595
6.3325662831415706,0.9803257902217319
6.346273136568284,0.9880097831716377
6.359979989994997,0.9932629553458011
6.37368684342171,1.006428050819738
6.387393696848424,1.0127089974375814
6.401100550275137,1.022612672668217
6.41480740370185,1.0307767807327517
6.428514257128564,1.039339290710435
6.442221110555277,1.0433748092520259
6.45592796398199,1.0492053466878906
6.4696348174087035,1.0540344325941748
6.483341670835417,1.0527005191720409
6.49704852426213,1.0488370573151182
6.510755377688843,1.0444778791362659
6.524462231115558,1.0399166099337827
6.538169084542271,1.0346210583893747
6.551875937968984,1.0272986021234713
6.5655827913956974,1.0168354951926866
6.579289644822411,1.0106005395139892
6.592996498249124,1.0041087401880169
6.606703351675837,0.9986414866780846
6.620410205102551,0.9946349407186896
6.634117058529264,0.9916765220094592
6.647823911955977,0.9912038116785771
6.6615307653826905,0.9881047228698452
6.675237618809404,0.9939172342750081
6.688944472236117,0.9935240367419885
6.70265132566283,0.9980979162759969
6.716358179089544,1.0003935006686717
6.730065032516258,1.006474101033486
6.743771885942971,1.0112104214948672
6.7574787393696845,1.015843889083743
6.771185592796398,1.0179589614162354
6.784892446223111,1.0165103771091908
6.798599299649824,1.0168750108202778
6.812306153076538,1.0191749411140334
6.826013006503251,1.01566399343428
6.839719859929964,1.0103593078060042
6.8534267133566775,1.0043279060933907
6.867133566783391,0.9943194832678316
6.880840420210104,0.9890436067307622
6.894547273636817,0.9800970678499216
6.908254127063531,0.9757246547387609
6.921960980490245,0.967017813948618
6.935667833916958,0.9613318751548179
6.9493746873436715,0.956892161958119
6.963081540770385,0.9531588832575333
6.976788394197098,0.951377662873019
6.990495247623811,0.9552065874048036
7.004202101050525,0.9600358034912534
7.017908954477238,0.9615149348318935
7.031615807903951,0.9697155215510062
7.0453226613306645,0.9779022340148743
7.059029514757378,0.9870141495503126
7.072736368184091,0.9942924285375715
7.086443221610804,1.0039973592937346
7.100150075037518,1.010936698275402
7.113856928464231,1.0200362789730888
7.127563781890945,1.0248773520769547
7.1412706353176585,1.0274399102112333
7.154977488744372,1.030277403132228
7.168684342171085,1.0315945747234665
7.182391195597798,1.030125861312129
7.196098049024512,1.0265020288561753
7.209804902451225,1.0251387810149062
7.223511755877938,1.0175589414186235
7.2372186093046516,1.0148100763704118
7.250925462731365,1.0052901249392359
7.264632316158078,1.0033680465918153
7.278339169584791,0.999960411908161
7.292046023011505,0.9966138505813462
7.305752876438218,0.9941352307156319
7.319459729864932,0.9933999454592782
7.3331665832916455,0.9947297806457392
7.346873436718359,0.9972789447966611
