time,flux
0.0,0.9810101520578706
0.013706853426713355,0.9837047888774629
0.02741370685342671,0.9873778908172774
0.041120560280140064,0.9896832305101326
0.05482741370685342,0.9941666481361278
0.06853426713356678,0.9987065341637331
0.08224112056028013,0.9999372853262574
0.09594797398699349,1.0044854293013579
0.10965482741370684,1.0080102604403431
0.1233616808404202,1.0116700204940083
0.13706853426713356,1.0142685117844326
0.1507753876938469,1.016412721209937
0.16448224112056026,1.0198517825551219
0.1781890945472736,1.0214135593868006
0.19189594797398699,1.0229744148613618
0.20560280140070034,1.0230190381285122
0.21930965482741369,1.02363292171097
0.23301650825412704,1.0218226149512137
0.2467233616808404,1.0219019381817234
0.26043021510755376,1.0191959584210468
0.2741370685342671,1.0171510302041011
0.28784392196098046,1.015804692956497
0.3015507753876938,1.0137478648323177
0.31525762881440716,1.009275207822906
0.3289644822411205,1.0055601526719444
0.34267133566783387,1.001052239367129
0.3563781890945472,0.9973142725466903
0.3700850425212606,0.9935169000643445
0.38379189594797397,0.991584709123888
0.3974987493746873,0.9864525798374107
0.41120560280140067,0.9854230733306225
0.424912456228114,0.9809273619859903
0.43861930965482737,0.9794866471798145
0.4523261630815407,0.9798906554560151
0.46603301650825407,0.9778404842736991
0.4797398699349674,0.9754536841114821
0.4934467233616808,0.9754073953324383
0.5071535767883941,0.9789345746921714
0.5208604302151075,0.9792166756700024
0.5345672836418208,0.979664135485141
0.5482741370685342,0.9824069007433535
0.5619809904952475,0.9862076155287399
0.5756878439219609,0.9877022844762122
0.5893946973486743,0.991010944959545
0.6031015507753876,0.9949831306862542
0.616808404202101,0.997542359073275
0.6305152576288143,1.0046432544988224
0.6442221110555277,1.0064713614444665
0.657928964482241,1.0097497193678389
0.6716358179089544,1.0136803456141001
0.6853426713356677,1.0163784194927563
0.6990495247623811,1.0187372930759613
0.7127563781890944,1.0202522235641078
0.7264632316158078,1.0208159091487419
0.7401700850425212,1.0226506448467283
0.7538769384692345,1.023456774294891
0.7675837918959479,1.0228100575701262
0.7812906453226612,1.022128147674881
0.7949974987493746,1.0210471017652447
0.8087043521760879,1.0203277269031306
0.8224112056028013,1.0155238419340213
0.8361180590295146,1.0129509090875612
0.849824912456228,1.0106216596412558
0.8635317658829413,1.0080406380342999
0.8772386193096547,1.0037528293766256
0.8909454727363681,1.0008679477004239
0.9046523261630814,0.9969374240380656
0.9183591795897948,0.9920859261823025
0.9320660330165081,0.9898666242377071
0.9457728864432215,0.9883375855622061
0.9594797398699348,0.9831030625558511
0.9731865932966483,0.9810982580191698
0.9868934467233615,0.9793368314363786
1.000600300150075,0.9777266522437538
1.0143071535767882,0.9770627511239336
1.0280140070035018,0.9770060263314055
1.041720860430215,0.9767224681771
1.0554277138569284,0.9779307072548449
1.0691345672836416,0.9784107796995781
1.0828414207103552,0.9804480498133179
1.0965482741370685,0.9853271059440366
1.1102551275637818,0.9881432038898277
1.123961980990495,0.9907009602704426
1.1376688344172086,0.99296081167905
1.1513756878439219,0.9982147962832254
1.1650825412706352,1.0013089261019537
1.1787893946973487,1.004437306589541
1.192496248124062,1.0066665700036417
1.2062031015507753,1.0117968274802271
1.2199099549774886,1.014579090110892
1.233616808404202,1.017478115710566
1.2473236618309154,1.0182905879328084
1.2610305152576287,1.0198029385779164
1.274737368684342,1.0217045230019335
1.2884442221110555,1.0239411755043417
1.3021510755377688,1.0228833854527355
1.315857928964482,1.0218246812645275
1.3295647823911956,1.0224561002029524
1.3432716358179089,1.0207152004052449
1.3569784892446222,1.0184203180034703
1.3706853426713355,1.0156342865380579
1.384392196098049,1.0133124271589515
1.3980990495247623,1.0085090870423197
1.4118059029514756,1.0070158852382871
1.4255127563781889,1.0025479012942198
1.4392196098049024,0.9990361265018358
1.4529264632316157,0.9960444810677447
1.466633316658329,0.9914601122933366
1.4803401700850425,0.9885117891581426
1.4940470235117558,0.9861666597749681
1.507753876938469,0.9811076996622539
1.5214607303651824,0.9785039859017507
1.5351675837918959,0.9786929836625033
1.5488744372186092,0.9790015787407349
1.5625812906453225,0.9768845998532699
1.5762881440720358,0.9765017315235657
1.5899949974987493,0.9762402474240701
1.6037018509254626,0.9794904375185385
1.6174087043521759,0.9812544703699767
1.6311155577788894,0.9823636873765854
1.6448224112056027,0.9841139816909275
1.658529264632316,0.988098241741786
1.6722361180590293,0.989862785314427
1.6859429714857428,0.994265781018392
1.699649824912456,0.9982966145526171
1.7133566783391694,1.0039896947102611
1.7270635317658827,1.0056926653193206
1.7407703851925962,1.0084249939508696
1.7544772386193095,1.0113886817349524
1.7681840920460228,1.015658728387569
1.7818909454727363,1.0188380639802614
1.7955977988994496,1.0190889074657459
1.8093046523261629,1.0232413049884936
1.8230115057528762,1.0220414168305758
1.8367183591795897,1.0236557052769553
1.850425212606303,1.0240267124761584
1.8641320660330163,1.0238497830108686
1.8778389194597296,1.0200827255733544
1.891545772886443,1.0192016703878373
1.9052526263131564,1.0166892133549001
1.9189594797398697,1.0132962112845816
1.9326663331665832,1.011155556993078
1.9463731865932965,1.007495403985966
1.9600800400200098,1.0039960866385114
1.973786893446723,1.001375646228517
1.9874937468734366,0.995687029452447
2.00120060030015,0.9940225548552348
2.014907453726863,0.98957741724599
2.0286143071535765,0.9877699482594451
2.04232116058029,0.9838075577539659
2.0560280140070035,0.9815200949066752
2.069734867433717,0.979643345576995
2.08344172086043,0.9791929853512537
2.0971485742871434,0.9765599080320306
2.1108554277138567,0.9783460842110471
2.12456228114057,0.9764086756076934
2.1382691345672833,0.9781204067780186
2.1519759879939966,0.9786307215095377
2.1656828414207103,0.9809242521415095
2.1793896948474236,0.9834179841439332
2.193096548274137,0.9853711083434465
2.20680340170085,0.9901804530851288
2.2205102551275635,0.9922256963913444
2.234217108554277,0.9963984248032959
2.24792396198099,0.9984407638123182
2.261630815407704,1.0051759580198447
2.275337668834417,1.007571807207053
2.2890445222611304,1.009660206343771
2.3027513756878437,1.0128792569487648
2.316458229114557,1.0162994086758625
2.3301650825412703,1.018486907421169
2.3438719359679836,1.0209294365893058
2.3575787893946973,1.0213365521685174
2.3712856428214106,1.0215631515240682
2.384992496248124,1.0246437407763882
2.3986993496748372,1.0238830159423293
2.4124062031015505,1.020530936926531
2.426113056528264,1.0211710763147772
2.439819909954977,1.0183640324159369
2.4535267633816904,1.016515690514047
2.467233616808404,1.0133724924074445
2.4809404702351174,1.0101457431765648
2.4946473236618307,1.0064963008683177
2.508354177088544,1.0024679691080964
2.5220610305152573,0.9999775927364839
2.5357678839419706,0.994665478563049
2.549474737368684,0.992158469949902
2.5631815907953976,0.987032847444908
2.576888444222111,0.9849478669935972
2.5905952976488242,0.9846235902726728
2.6043021510755375,0.981869824431214
2.618009004502251,0.9792610374877352
2.631715857928964,0.976617184525313
2.6454227113556774,0.9772697846708644
2.659129564782391,0.9759593331996687
2.6728364182091044,0.976561906115005
2.6865432716358177,0.9788175381168785
2.700250125062531,0.9798427387937526
2.7139569784892443,0.9830575784878429
2.7276638319159576,0.9844093049760738
2.741370685342671,0.9857099044216742
2.755077538769384,0.9929907730931385
2.768784392196098,0.9942917765094653
2.7824912456228112,0.9980458226637661
2.7961980990495245,1.0027368668996846
2.809904952476238,1.005918941140202
2.823611805902951,1.008141149188004
2.8373186593296644,1.010898730635187
2.8510255127563777,1.0151187789424074
2.8647323661830915,1.0173864573194595
2.8784392196098048,1.0197208381491325
2.892146073036518,1.0230865018172517
2.9058529264632313,1.0230283615275884
2.9195597798899446,1.0234608280341497
2.933266633316658,1.0220982257263813
2.9469734867433712,1.023297789802734
2.960680340170085,1.022128433149242
2.9743871935967983,1.019116851594346
2.9880940470235116,1.0181868265014706
3.001800900450225,1.0138190591937177
3.015507753876938,1.011420022154038
3.0292146073036514,1.009209442301555
3.0429214607303647,1.004134151566313
3.056628314157078,1.0015241153381642
3.0703351675837918,0.9982335847265894
3.084042021010505,0.9930157357889614
3.0977488744372184,0.9905790013973585
3.1114557278639317,0.9871324120815634
3.125162581290645,0.9826993153897703
3.1388694347173582,0.9811278514139955
3.1525762881440715,0.9800864035597844
3.1662831415707853,0.9772435553712363
3.1799899949974986,0.9773393291118742
3.193696848424212,0.9766193051447928
3.207403701850925,0.9769703013017197
3.2211105552776385,0.97735159431798
3.2348174087043517,0.9787335116771945
3.248524262131065,0.9819600548353861
3.262231115557779,0.9842067988711948
3.275937968984492,0.9863491076320757
3.2896448224112054,0.9887732715769062
3.3033516758379187,0.9897885668020697
3.317058529264632,0.995170455556138
3.3307653826913453,1.000303511041686
3.3444722361180586,1.0022374686027453
3.358179089544772,1.0065895870834443
3.3718859429714856,1.0087649406540902
3.385592796398199,1.0131640485504771
3.399299649824912,1.0163937017802955
3.4130065032516255,1.0180623082034148
3.4267133566783388,1.0200490259195063
3.440420210105052,1.021833003374722
3.4541270635317654,1.024327194553812
3.467833916958479,1.0230610996536162
3.4815407703851924,1.0239882640645785
3.4952476238119057,1.0226999169352706
3.508954477238619,1.0206198634406243
3.5226613306653323,1.0187768195739855
3.5363681840920456,1.0164131066043622
3.550075037518759,1.0139381191787513
3.5637818909454726,1.0111431313719421
3.577488744372186,1.0081135247279955
3.591195597798899,1.0040884973220294
3.6049024512256125,0.9995954003639548
3.6186093046523258,0.995007636054019
3.632316158079039,0.9925254168610157
3.6460230115057524,0.9877548981668375
3.659729864932466,0.9840311381185136
3.6734367183591794,0.9830871183569645
3.6871435717858927,0.9809635266681757
3.700850425212606,0.9782862686644135
3.7145572786393193,0.978077114343795
3.7282641320660326,0.9767347589963492
3.741970985492746,0.9753922297356211
3.755677838919459,0.9676565569722088
3.769384692346173,0.9776009938855217
3.783091545772886,0.9798669735578271
3.7967983991995995,0.9815260436695253
3.810505252626313,0.9835917105886374
3.824212106053026,0.9863173623987654
3.8379189594797394,0.9883297670046994
3.8516258129064527,0.9936715764373985
3.8653326663331664,0.9977826069911075
3.8790395197598797,1.0003693515164351
3.892746373186593,1.0034717890447045
3.9064532266133063,1.0087178734011557
3.9201600800400196,1.0103266871953491
3.933866933466733,1.0146875788740088
3.947573786893446,1.0170609343542605
3.96128064032016,1.020885197783375
3.974987493746873,1.021123407986148
3.9886943471735865,1.0236241903810217
4.0024012006003,1.0218330648489387
4.016108054027013,1.0247411448320412
4.029814907453726,1.0219763668099886
4.04352176088044,1.022286638371653
4.057228614307153,1.0197299430893065
4.070935467733866,1.018275491775432
4.08464232116058,1.0155423683137357
4.098349174587293,1.0124723716092319
4.112056028014007,1.008632307769132
4.12576288144072,1.0054002165914717
4.139469734867434,1.0031561693665474
4.153176588294147,0.9975118574070692
4.16688344172086,0.9935944104953964
4.1805902951475735,0.9902293838192155
4.194297148574287,0.9862185553899757
4.208004002001,0.98466019044116
4.221710855427713,0.9822304625017492
4.235417708854427,0.9792879166459634
4.24912456228114,0.9778832158867197
4.262831415707853,0.9776144833512673
4.276538269134567,0.9759928127798057
4.29024512256128,0.9746549958713117
4.303951975987993,0.9765369152419032
4.317658829414707,0.9799052131269987
4.331365682841421,0.9798477357783825
4.345072536268134,0.9825239457360503
4.358779389694847,0.9841630082957181
4.3724862431215605,0.9887505992569516
4.386193096548274,0.9902712217307931
4.399899949974987,0.9947658554540704
4.4136068034017,0.9976899203802515
4.427313656828414,1.0023808506171705
4.441020510255127,1.006851516763742
4.45472736368184,1.0098957515104574
4.468434217108554,1.0120894819629838
4.482141070535267,1.0154721933605353
4.49584792396198,1.017814355351002
4.5095547773886935,1.0200401676011577
4.523261630815408,1.0215458827207566
4.536968484242121,1.0234038324772776
4.550675337668834,1.0211719423790027
4.5643821910955475,1.0228883636740478
4.578089044522261,1.0231549904387136
4.591795897948974,1.0208084232719064
4.605502751375687,1.0178983592159947
4.619209604802401,1.0159905024533853
4.632916458229114,1.0141696894734156
4.646623311655827,1.0109054753535418
4.660330165082541,1.0078451815645053
4.674037018509254,1.0026011777374013
4.687743871935967,0.9999811920166444
4.7014507253626805,0.9975749686968873
4.715157578789395,0.9919238541269315
4.728864432216108,0.9879678053350122
4.742571285642821,0.9867225909407512
4.756278139069535,0.980790726812898
4.769984992496248,0.981792210624209
4.783691845922961,0.9780927193839298
4.7973986993496744,0.977704541395982
4.811105552776388,0.9772512924120478
4.824812406203101,0.9757192788649178
4.838519259629814,0.9772934108936722
4.852226113056528,0.9773174427419247
4.865932966483241,0.9788709885199676
4.879639819909954,0.9817542009024666
4.8933466733366675,0.9857726627822959
4.907053526763381,0.9861322381396977
4.920760380190095,0.989514116114547
4.934467233616808,0.9917448213236068
4.948174087043522,0.9973824424396558
4.961880940470235,1.00067696272771
4.975587793896948,1.003460784034982
4.9892946473236615,1.0069489257119608
5.003001500750375,1.0126129724481112
5.016708354177088,1.0125000561619801
5.030415207603801,1.017680111021183
5.044122061030515,1.0218117200062475
5.057828914457228,1.0212826774792234
5.071535767883941,1.0211757195163131
5.0852426213106545,1.0228771595481183
5.098949474737368,1.0199335598293948
5.112656328164081,1.0253470802262927
5.126363181590795,1.0228054467715748
5.140070035017509,1.0200980287903478
5.153776888444222,1.0184309362947381
5.167483741870935,1.0170501880257712
5.1811905952976485,1.012304333239483
5.194897448724362,1.009971916025725
5.208604302151075,1.0067564986388695
5.222311155577788,1.0011414019469227
5.236018009004502,0.9990831861724043
5.249724862431215,0.9949434138261147
5.263431715857928,0.9916893714931806
5.2771385692846415,0.9887448267381336
5.290845422711355,0.986438305675018
5.304552276138068,0.9829708846102029
5.318259129564782,0.980443302174199
5.331965982991496,0.9778393697306648
5.345672836418209,0.979183119864807
5.359379689844922,0.9772329306866352
5.3730865432716355,0.9757076893162312
5.386793396698349,0.9769792600206786
5.400500250125062,0.9766764187253958
5.414207103551775,0.9797496004041217
5.427913956978489,0.9834029467892739
5.441620810405202,0.9825949415495419
5.455327663831915,0.9880820818957434
5.4690345172586285,0.9900389257534846
5.482741370685342,0.9930936138071004
5.496448224112055,0.998349736180855
5.510155077538768,1.0023994575162283
5.523861930965483,1.0062298667221101
5.537568784392196,1.0093948564678117
5.551275637818909,1.0115870823130397
5.5649824912456225,1.0144477068799282
5.578689344672336,1.0187547423934944
5.592396198099049,1.0199899025446377
5.606103051525762,1.0208306287510085
5.619809904952476,1.0246212653052105
5.633516758379189,1.0244506076386888
5.647223611805902,1.0233134369517067
5.660930465232616,1.0232653002536207
5.674637318659329,1.0205889009272928
5.688344172086042,1.0188776338787093
5.7020510255127554,1.0172911819086428
5.71575787893947,1.0149392979865681
5.729464732366183,1.0120363749817545
5.743171585792896,1.0069689904741548
5.7568784392196095,1.0034272269635487
5.770585292646323,1.0005084799876516
5.784292146073036,0.9974197011753535
5.797998999499749,0.9924658780244862
5.811705852926463,0.9896340359640722
5.825412706353176,0.9859039949412278
5.839119559779889,0.9839558290807621
5.852826413206603,0.9813396302581844
5.866533266633316,0.9790904362964946
5.880240120060029,0.9784451408733577
5.8939469734867425,0.9772874008880161
5.907653826913456,0.9779009494406934
5.92136068034017,0.9761115485709927
5.935067533766883,0.9759751775230328
5.9487743871935965,0.9806079544648142
5.96248124062031,0.9820256575247299
5.976188094047023,0.9826769199867619
5.989894947473736,0.9869607673826142
6.00360180090045,0.9886321384539182
6.017308654327163,0.9934903135789708
6.031015507753876,0.9953970971362657
6.04472236118059,0.9978003448376895
6.058429214607303,1.005570439359773
6.072136068034016,1.0062258535023898
6.0858429214607295,1.0100527375417447
6.099549774887443,1.013735411761993
6.113256628314156,1.0170149843456682
6.12696348174087,1.0188304882732526
6.1406703351675835,1.0218886897976895
6.154377188594297,1.023502492679925
6.16808404202101,1.0234260560870674
6.181790895447723,1.0233738718464322
6.195497748874437,1.0227984685193003
6.20920460230115,1.021859220350429
6.222911455727863,1.0201905366202895
6.236618309154577,1.0183022153627308
6.25032516258129,1.015621491467082
6.264032016008003,1.014696606117833
6.2777388694347165,1.0103295677942397
6.29144572286143,1.0069832903728977
6.305152576288143,1.0026978523997638
6.318859429714857,0.9997436058301657
6.3325662831415706,0.993993899882737
6.346273136568284,0.9920883596416219
6.359979989994997,0.9890810947425626
6.37368684342171,0.9858994836083443
6.387393696848424,0.9820509738834007
6.401100550275137,0.9801484013998363
6.41480740370185,0.9782129428644103
6.428514257128564,0.9773580300433843
6.442221110555277,0.9769222604871688
6.45592796398199,0.9760704616554454
6.4696348174087035,0.9774864869460235
6.483341670835417,0.9780269084154329
6.49704852426213,0.9806631257776028
6.510755377688843,0.9832560912412144
6.524462231115558,0.983959145228392
6.538169084542271,0.9870145658156662
6.551875937968984,0.9887014954563665
6.5655827913956974,0.9960209254576532
6.579289644822411,0.9980516197228978
6.592996498249124,1.0010196369097129
6.606703351675837,1.006815519127403
6.620410205102551,1.009083936946587
6.634117058529264,1.011642117281081
6.647823911955977,1.0157912784180314
6.6615307653826905,1.0176278647323025
6.675237618809404,1.0210502824531846
6.688944472236117,1.0202508218300428
6.70265132566283,1.0222199098302944
6.716358179089544,1.0232646163310561
6.730065032516258,1.024225098384781
6.743771885942971,1.0215233572343931
6.7574787393696845,1.0213309330662208
6.771185592796398,1.0189323069120693
6.784892446223111,1.0205065175779449
6.798599299649824,1.0142591189971013
6.812306153076538,1.0119609375124892
6.826013006503251,1.0090054419686036
6.839719859929964,1.0055344530925021
6.8534267133566775,1.0017616999531855
6.867133566783391,0.9975415728761711
6.880840420210104,0.9940081433100021
6.894547273636817,0.9892786365348252
6.908254127063531,0.9880563144372714
6.921960980490245,0.9840216670879467
6.935667833916958,0.982926928361581
6.9493746873436715,0.9800369391162213
6.963081540770385,0.9767343828070308
6.976788394197098,0.9773241365014503
6.990495247623811,0.9767081128982789
7.004202101050525,0.9765389412290142
7.017908954477238,0.9767999639547652
7.031615807903951,0.9795111366329649
7.0453226613306645,0.9808090857384297
7.059029514757378,0.9826171542271588
7.072736368184091,0.9854947797473645
7.086443221610804,0.9887957386348845
7.100150075037518,0.9909199199070954
7.113856928464231,0.9957367506618998
7.127563781890945,0.9984338907916029
7.1412706353176585,1.0031380329078996
7.154977488744372,1.0061509801416915
7.168684342171085,1.0098969147445982
7.182391195597798,1.0142310042244418
7.196098049024512,1.014961640157407
7.209804902451225,1.0183998077138807
7.223511755877938,1.0206494648198103
7.2372186093046516,1.0218937710042841
7.250925462731365,1.0216216439814938
7.264632316158078,1.0227311078141463
7.278339169584791,1.0240820295695054
7.292046023011505,1.0215762575767535
7.305752876438218,1.0217877360809793
7.319459729864932,1.0200253289354444
7.3331665832916455,1.0158618917631546
7.346873436718359,1.015193000344618
