time,flux
0.0,1.0067552242662998
0.013706853426713355,1.0093201403304712
0.02741370685342671,1.012370140724101
0.041120560280140064,1.015078475462488
0.05482741370685342,1.0172312544550624
0.06853426713356678,1.0187018194518194
0.08224112056028013,1.0206066230050659
0.09594797398699349,1.0226775598437656
0.10965482741370684,1.0227396863213485
0.1233616808404202,1.0240919338358554
0.13706853426713356,1.0247196374374796
0.1507753876938469,1.0241271315781562
0.16448224112056026,1.0239416158453847
0.1781890945472736,1.0226589553181296
0.19189594797398699,1.0209099247553557
0.20560280140070034,1.0192459323993255
0.21930965482741369,1.017097239912235
0.23301650825412704,1.0148435289865243
0.2467233616808404,1.0130253800329112
0.26043021510755376,1.0091550143666226
0.2741370685342671,1.0062805022705767
0.28784392196098046,1.0032421116029318
0.3015507753876938,1.0010813242643954
0.31525762881440716,0.9987999551888351
0.3289644822411205,0.995152807323343
0.34267133566783387,0.9932501105082413
0.3563781890945472,0.9913236186803087
0.3700850425212606,0.9890808906250241
0.38379189594797397,0.9883249357160094
0.3974987493746873,0.9868914923160838
0.41120560280140067,0.986635411761627
0.424912456228114,0.9867281849064375
0.43861930965482737,0.9871895839556031
0.4523261630815407,0.987383476362408
0.46603301650825407,0.9893115933400217
0.4797398699349674,0.990108056975028
0.4934467233616808,0.9914437691299177
0.5071535767883941,0.9949055463076227
0.5208604302151075,0.9970371248319672
0.5345672836418208,0.999710523219801
0.5482741370685342,1.0027928191136155
0.5619809904952475,1.004974256047791
0.5756878439219609,1.0078535676070224
0.5893946973486743,1.0112843640946103
0.6031015507753876,1.0136596207970203
0.616808404202101,1.015611775362483
0.6305152576288143,1.0182331558943756
0.6442221110555277,1.0209251597654445
0.657928964482241,1.0216949198809857
0.6716358179089544,1.0221143028028936
0.6853426713356677,1.0232492336656547
0.6990495247623811,1.0254706758937948
0.7127563781890944,1.023709895581769
0.7264632316158078,1.023049272113258
0.7401700850425212,1.0212456391107136
0.7538769384692345,1.020636948590711
0.7675837918959479,1.0184927381506723
0.7812906453226612,1.016997210765002
0.7949974987493746,1.014161621910812
0.8087043521760879,1.0117580770364527
0.8224112056028013,1.0093155721009037
0.8361180590295146,1.0056249562760478
0.849824912456228,1.003583618801474
0.8635317658829413,1.0003349015494771
0.8772386193096547,0.9969220981583005
0.8909454727363681,0.9950622294641285
0.9046523261630814,0.9912355416151515
0.9183591795897948,0.9897324528113189
0.9320660330165081,0.9882526366476327
0.9457728864432215,0.986896916881533
0.9594797398699348,0.98655947951319
0.9731865932966483,0.9858553039898356
0.9868934467233615,0.9851036022939436
1.000600300150075,0.9849426696660804
1.0143071535767882,0.9852384806929303
1.0280140070035018,0.9869388852051498
1.041720860430215,0.9886351504883162
1.0554277138569284,0.9911635731918225
1.0691345672836416,0.9927883274719044
1.0828414207103552,0.9957299992591355
1.0965482741370685,0.9970144214541594
1.1102551275637818,1.0008060369064766
1.123961980990495,1.003614872146626
1.1376688344172086,1.0054841780753863
1.1513756878439219,1.009409568697124
1.1650825412706352,1.011517570545799
1.1787893946973487,1.014034336676642
1.192496248124062,1.015751035167921
1.2062031015507753,1.0174616919499568
1.2199099549774886,1.0190457436901978
1.233616808404202,1.0199554059876645
1.2473236618309154,1.0208783082315955
1.2610305152576287,1.0220381930173594
1.274737368684342,1.0205813919922813
1.2884442221110555,1.0211196158538272
1.3021510755377688,1.0202879027852454
1.315857928964482,1.0181128085503435
1.3295647823911956,1.016220697511671
1.3432716358179089,1.0152296815930557
1.3569784892446222,1.0124463704588007
1.3706853426713355,1.0086385074279072
1.384392196098049,1.0068982377690936
1.3980990495247623,1.0039883392711901
1.4118059029514756,1.0002546252853461
1.4255127563781889,0.9986550846053577
1.4392196098049024,0.9948368571145277
1.4529264632316157,0.9929790885562363
1.466633316658329,0.9905044990157507
1.4803401700850425,0.9876073956969615
1.4940470235117558,0.9857919622793171
1.507753876938469,0.9843062463725073
1.5214607303651824,0.9841390563962161
1.5351675837918959,0.9831695407322989
1.5488744372186092,0.9825118977801853
1.5625812906453225,0.9829033615446434
1.5762881440720358,0.98393427095554
1.5899949974987493,0.9841192683809946
1.6037018509254626,0.9860125547435079
1.6174087043521759,0.987303903686015
1.6311155577788894,0.9895017905963852
1.6448224112056027,0.992282957798328
1.658529264632316,0.9949444209930933
1.6722361180590293,0.9973840088018335
1.6859429714857428,0.9998801146226817
1.699649824912456,1.0024942773334393
1.7133566783391694,1.0047583898827825
1.7270635317658827,1.0090818097002006
1.7407703851925962,1.0104820760713915
1.7544772386193095,1.012579109816897
1.7681840920460228,1.015201755127369
1.7818909454727363,1.016421447153427
1.7955977988994496,1.0179712621691839
1.8093046523261629,1.0183746751120597
1.8230115057528762,1.0186294252168608
1.8367183591795897,1.018683187410097
1.850425212606303,1.0183370824261724
1.8641320660330163,1.0173037436164276
1.8778389194597296,1.014957847693952
1.891545772886443,1.0140489484907333
1.9052526263131564,1.0126036130692881
1.9189594797398697,1.0102734601786698
1.9326663331665832,1.0068502485826172
1.9463731865932965,1.004286250211259
1.9600800400200098,1.002436306129186
1.973786893446723,0.9979028082157877
1.9874937468734366,0.9958520717637912
2.00120060030015,0.9927863309702245
2.014907453726863,0.9902772866414898
2.0286143071535765,0.9875313956076056
2.04232116058029,0.9855642274080083
2.0560280140070035,0.9831646969598414
2.069734867433717,0.982090115515794
2.08344172086043,0.9816266138925069
2.0971485742871434,0.9804913069809763
2.1108554277138567,0.9800418904493662
2.12456228114057,0.9798111701579139
2.1382691345672833,0.9811670175215029
2.1519759879939966,0.9820011931239437
2.1656828414207103,0.9826422548491972
2.1793896948474236,0.9849749260068045
2.193096548274137,0.9866955238626869
2.20680340170085,0.989033334719337
2.2205102551275635,0.9917033492898812
2.234217108554277,0.9944237835347295
2.24792396198099,0.9965672452262962
2.261630815407704,0.9995007541606701
2.275337668834417,1.0022454993516168
2.2890445222611304,1.0045712367500867
2.3027513756878437,1.007697583876172
2.316458229114557,1.009538894645274
2.3301650825412703,1.0117722516787375
2.3438719359679836,1.0127349412413538
2.3575787893946973,1.0146637924418753
2.3712856428214106,1.0157925958140206
2.384992496248124,1.0160101088925535
2.3986993496748372,1.0168614023140283
2.4124062031015505,1.0160630849222119
2.426113056528264,1.0152515461133746
2.439819909954977,1.0138648416163283
2.4535267633816904,1.01178323628526
2.467233616808404,1.0095073955992502
2.4809404702351174,1.008569731466209
2.4946473236618307,1.0051621977668372
2.508354177088544,1.0016109289370998
2.5220610305152573,0.9995285215474933
2.5357678839419706,0.996117387738265
2.549474737368684,0.993295010670469
2.5631815907953976,0.9907275008969695
2.576888444222111,0.9881565699222631
2.5905952976488242,0.9859678534251289
2.6043021510755375,0.9827857665199453
2.618009004502251,0.980940875666731
2.631715857928964,0.9800734088308134
2.6454227113556774,0.9783524056645061
2.659129564782391,0.9768795691755727
2.6728364182091044,0.9782164616702854
2.6865432716358177,0.9776546319227079
2.700250125062531,0.9777737539796407
2.7139569784892443,0.978849802680617
2.7276638319159576,0.9802514137079165
2.741370685342671,0.9818103590592021
2.755077538769384,0.9833417608146339
2.768784392196098,0.9873152844633464
2.7824912456228112,0.9884807805031167
2.7961980990495245,0.9910142235021867
2.809904952476238,0.9943022603371968
2.823611805902951,0.9959383014931651
2.8373186593296644,0.9994782234260693
2.8510255127563777,1.0019553924662723
2.8647323661830915,1.0061403793164367
2.8784392196098048,1.008123500268885
2.892146073036518,1.0098177011220728
2.9058529264632313,1.010524060732633
2.9195597798899446,1.013405670635449
2.933266633316658,1.0129039530556523
2.9469734867433712,1.0139537567999395
2.960680340170085,1.0133962486732675
2.9743871935967983,1.0136830597316209
2.9880940470235116,1.012731812551436
3.001800900450225,1.0122840629208527
3.015507753876938,1.0102682738193913
3.0292146073036514,1.0075737251802563
3.0429214607303647,1.0052760832572178
3.056628314157078,1.0029785463862642
3.0703351675837918,1.0009556127355868
3.084042021010505,0.9977979343178086
3.0977488744372184,0.993921228502576
3.1114557278639317,0.9920214924146492
3.125162581290645,0.9891565555576768
3.1388694347173582,0.9858703918784898
3.1525762881440715,0.9844264640050568
3.1662831415707853,0.9811523704968633
3.1799899949974986,0.979851679725134
3.193696848424212,0.9784226047508656
3.207403701850925,0.9761728372593671
3.2211105552776385,0.9761897382046827
3.2348174087043517,0.9755593771096648
3.248524262131065,0.9758017020626125
3.262231115557779,0.9764827779642483
3.275937968984492,0.9776943359852045
3.2896448224112054,0.9784546202357776
3.3033516758379187,0.980476742697136
3.317058529264632,0.9823044630839829
3.3307653826913453,0.984411698716101
3.3444722361180586,0.9861112931365692
3.358179089544772,0.9894301802268651
3.3718859429714856,0.9924003205107409
3.385592796398199,0.9953413950722069
3.399299649824912,0.9981803465364141
3.4130065032516255,1.0015977107698657
3.4267133566783388,1.0032820816111874
3.440420210105052,1.0060962223041738
3.4541270635317654,1.0080920061657255
3.467833916958479,1.0093272777006712
3.4815407703851924,1.0120257055653012
3.4952476238119057,1.0115342134112222
3.508954477238619,1.0122744598273838
3.5226613306653323,1.012842596733618
3.5363681840920456,1.0129736767042539
3.550075037518759,1.0127654806346598
3.5637818909454726,1.0118152069129067
3.577488744372186,1.009510876499335
3.591195597798899,1.0078616414474872
3.6049024512256125,1.005925833011114
3.6186093046523258,1.003043896983364
3.632316158079039,1.0009150888413965
3.6460230115057524,0.9978477061980002
3.659729864932466,0.9947836004765179
3.6734367183591794,0.9917296313568711
3.6871435717858927,0.9893219844721124
3.700850425212606,0.9863376137298173
3.7145572786393193,0.9835590106671961
3.7282641320660326,0.9812469289263742
3.741970985492746,0.9803729300577729
3.755677838919459,0.9777288004700856
3.769384692346173,0.9770120368950058
3.783091545772886,0.9759131274805117
3.7967983991995995,0.9750696461959312
3.810505252626313,0.9755548307806979
3.824212106053026,0.9763331551642246
3.8379189594797394,0.9763824731741543
3.8516258129064527,0.9785618804653848
3.8653326663331664,0.980320402490065
3.8790395197598797,0.9821173521297313
3.892746373186593,0.9840557751147719
3.9064532266133063,0.9860724762691007
3.9201600800400196,0.9889020940077671
3.933866933466733,0.9911450939924935
3.947573786893446,0.9943072762879515
3.96128064032016,0.998406988168858
3.974987493746873,1.000685629822234
3.9886943471735865,1.003962393495892
4.0024012006003,1.0060849012380744
4.016108054027013,1.0078930696474906
4.029814907453726,1.011150568155343
4.04352176088044,1.0110410479185021
4.057228614307153,1.0119436946572977
4.070935467733866,1.0132821833646781
4.08464232116058,1.0133525777592027
4.098349174587293,1.0136860118020663
4.112056028014007,1.0129556374680504
4.12576288144072,1.0125459767821972
4.139469734867434,1.0097590774414906
4.153176588294147,1.0084372343259576
4.16688344172086,1.0056336268782102
4.1805902951475735,1.0041018138602558
4.194297148574287,1.0014103137339132
4.208004002001,0.9991321172748384
4.221710855427713,0.9961515444745415
4.235417708854427,0.9937209928471328
4.24912456228114,0.9902465251217307
4.262831415707853,0.9886327904199593
4.276538269134567,0.9853149360491013
4.29024512256128,0.9821237443863339
4.303951975987993,0.9811608059818844
4.317658829414707,0.9796551254188104
4.331365682841421,0.9789092840921405
4.345072536268134,0.9768482268427973
4.358779389694847,0.9763402955544617
4.3724862431215605,0.9770479002099474
4.386193096548274,0.9770740088573241
4.399899949974987,0.9772645583895239
4.4136068034017,0.9788025485116693
4.427313656828414,0.980747972108886
4.441020510255127,0.9835573502754814
4.45472736368184,0.9860242212133156
4.468434217108554,0.9879962281091301
4.482141070535267,0.9904594462880727
4.49584792396198,0.9942099517422066
4.5095547773886935,0.9962007509356927
4.523261630815408,0.9987418624056505
4.536968484242121,1.0022483575124292
4.550675337668834,1.0045178803360477
4.5643821910955475,1.0069958352389698
4.578089044522261,1.0085043368696565
4.591795897948974,1.0110110508159311
4.605502751375687,1.013288255915628
4.619209604802401,1.013554000626498
4.632916458229114,1.015720035906392
4.646623311655827,1.0153804504375745
4.660330165082541,1.0148775712175364
4.674037018509254,1.014927423992993
4.687743871935967,1.0139489011756497
4.7014507253626805,1.0124620601801504
4.715157578789395,1.0101743825807274
4.728864432216108,1.0078007271949938
4.742571285642821,1.0064447387305044
4.756278139069535,1.0036681036153228
4.769984992496248,1.0014209841042896
4.783691845922961,0.9988719515554969
4.7973986993496744,0.9953497904688385
4.811105552776388,0.9922991975242249
4.824812406203101,0.9901397543197914
4.838519259629814,0.9871139553754222
4.852226113056528,0.9847653131517152
4.865932966483241,0.982821536747414
4.879639819909954,0.9816815156852002
4.8933466733366675,0.979324393107386
4.907053526763381,0.9791002328434868
4.920760380190095,0.9785756745563787
4.934467233616808,0.9787475837409487
4.948174087043522,0.9801277538216777
4.961880940470235,0.9794836837860973
4.975587793896948,0.981193453446942
4.9892946473236615,0.9829292895570864
5.003001500750375,0.9842969662392576
5.016708354177088,0.9870401297054362
5.030415207603801,0.9895006637222851
5.044122061030515,0.9920249188726181
5.057828914457228,0.9950447173149076
5.071535767883941,0.998032934002017
5.0852426213106545,1.0010704064145453
5.098949474737368,1.0038801387823337
5.112656328164081,1.0064364221616768
5.126363181590795,1.009395754935899
5.140070035017509,1.0106303428808006
5.153776888444222,1.012402551923377
5.167483741870935,1.014933111721111
5.1811905952976485,1.0163844293065962
5.194897448724362,1.0173106735915292
5.208604302151075,1.0175361317066445
5.222311155577788,1.0176138657971696
5.236018009004502,1.0161293130444922
5.249724862431215,1.016537255417368
5.263431715857928,1.014841706532217
5.2771385692846415,1.01323422261026
5.290845422711355,1.0105428297531698
5.304552276138068,1.0099044599375624
5.318259129564782,1.0073136155103215
5.331965982991496,1.0034010948917533
5.345672836418209,1.0010653543945278
5.359379689844922,0.9986610661582069
5.3730865432716355,0.9956442618281522
5.386793396698349,0.9923169827262864
5.400500250125062,0.9890480643028697
5.414207103551775,0.9877078442788263
5.427913956978489,0.9858007771260514
5.441620810405202,0.9834442461435137
5.455327663831915,0.9837381209703379
5.4690345172586285,0.9813226598873169
5.482741370685342,0.9815229921365831
5.496448224112055,0.9810108176661673
5.510155077538768,0.9809316033240401
5.523861930965483,0.9823021070112303
5.537568784392196,0.9831091423931598
5.551275637818909,0.9852036049192406
5.5649824912456225,0.9864405141948771
5.578689344672336,0.9896230131887295
5.592396198099049,0.9918113732446785
5.606103051525762,0.99519303210392
5.619809904952476,0.9971074272655426
5.633516758379189,1.000675284670172
5.647223611805902,1.0040791921485739
5.660930465232616,1.005634493660851
5.674637318659329,1.0083846511828198
5.688344172086042,1.0107564363427655
5.7020510255127554,1.0144765887217355
5.71575787893947,1.0162921222021444
5.729464732366183,1.018211300233222
5.743171585792896,1.0189650229816827
5.7568784392196095,1.0201836075959951
5.770585292646323,1.020754648101161
5.784292146073036,1.020019065709844
5.797998999499749,1.020493694322963
5.811705852926463,1.019459277422703
5.825412706353176,1.0183458866391242
5.839119559779889,1.0168583149123747
5.852826413206603,1.0150652227590786
5.866533266633316,1.012884461012457
5.880240120060029,1.0092779792986213
5.8939469734867425,1.0062134080317824
5.907653826913456,1.0040508251622704
5.92136068034017,1.0011611333195305
5.935067533766883,0.9992366092644416
5.9487743871935965,0.9960882648858256
5.96248124062031,0.9932642024049485
5.976188094047023,0.990219216580319
5.989894947473736,0.9892290777183949
6.00360180090045,0.9872778626518645
6.017308654327163,0.9862197611862614
6.031015507753876,0.9846124315807809
6.04472236118059,0.9831719020733062
6.058429214607303,0.9841225633066318
6.072136068034016,0.9839693163685008
6.0858429214607295,0.984517581430731
6.099549774887443,0.9857385831522866
6.113256628314156,0.9870231645269951
6.12696348174087,0.9892630469004834
6.1406703351675835,0.9901968147073213
6.154377188594297,0.9937305168053625
6.16808404202101,0.9963749936729739
6.181790895447723,1.0001350322824236
6.195497748874437,1.0017875260339388
6.20920460230115,1.0045394631647013
6.222911455727863,1.0072273278345203
6.236618309154577,1.0111282746056411
6.25032516258129,1.013167451622689
6.264032016008003,1.0156026117007684
6.2777388694347165,1.0180595409808035
6.29144572286143,1.0198493323022517
6.305152576288143,1.0208626325146968
6.318859429714857,1.021731058630131
6.3325662831415706,1.0224976905756458
6.346273136568284,1.0228880777540408
6.359979989994997,1.0223408552631514
6.37368684342171,1.021740621308827
6.387393696848424,1.0200761883689415
6.401100550275137,1.0196280710905936
6.41480740370185,1.0159471083600995
6.428514257128564,1.014876401466193
6.442221110555277,1.0122203345913767
6.45592796398199,1.0099116819180023
6.4696348174087035,1.0068959491742477
6.483341670835417,1.0041699996856914
6.49704852426213,1.0006217087598845
6.510755377688843,0.9982141274885545
6.524462231115558,0.995540221833288
6.538169084542271,0.993504699486751
6.551875937968984,0.9920472336150177
6.5655827913956974,0.9894759842258618
6.579289644822411,0.9885994408196106
6.592996498249124,0.9876265050389877
6.606703351675837,0.9863004057501078
6.620410205102551,0.9861614369706271
6.634117058529264,0.9865842520742216
6.647823911955977,0.9872459188430319
6.6615307653826905,0.9876865204416697
6.675237618809404,0.9896048315915396
6.688944472236117,0.9918598202879885
6.70265132566283,0.9933075510959639
6.716358179089544,0.9959731471427808
6.730065032516258,0.9980381990095444
6.743771885942971,1.0014046956988503
6.7574787393696845,1.0034197603799337
6.771185592796398,1.0068239750926467
6.784892446223111,1.0093580688388284
6.798599299649824,1.012259641012604
6.812306153076538,1.0147361468190037
6.826013006503251,1.0169059440209136
6.839719859929964,1.0188756090409838
6.8534267133566775,1.02072429906549
6.867133566783391,1.0219739395963512
6.880840420210104,1.0237249351356799
6.894547273636817,1.0236317723566757
6.908254127063531,1.0245926581377713
6.921960980490245,1.0232608993576031
6.935667833916958,1.0228437527052334
6.9493746873436715,1.0223062417340736
6.963081540770385,1.0202352405863442
6.976788394197098,1.018821511710124
6.990495247623811,1.015887049179347
7.004202101050525,1.0145186674194007
7.017908954477238,1.0110802725539927
7.031615807903951,1.009296637990079
7.0453226613306645,1.0055958896686128
7.059029514757378,1.0026977129712127
7.072736368184091,1.0013068093894133
7.086443221610804,0.9972066394300471
7.100150075037518,0.9942733473234664
7.113856928464231,0.9934475633758302
7.127563781890945,0.9906522819951752
7.1412706353176585,0.9885583984288402
7.154977488744372,0.9882663612884967
7.168684342171085,0.9872478451282242
7.182391195597798,0.9871803688579333
7.196098049024512,0.9869259038827546
7.209804902451225,0.9876824610686935
7.223511755877938,0.9882380173541504
7.2372186093046516,0.9891566081798109
7.250925462731365,0.9911031791486214
7.264632316158078,0.9935060948594578
7.278339169584791,0.996517650777087
7.292046023011505,0.998288821328374
7.305752876438218,1.001955451359501
7.319459729864932,1.0039222444643234
7.3331665832916455,1.0071527995654748
7.346873436718359,1.0099714525997716
